* Freq(Hz)	SPL(dB)
20.885475	8.716
21.036821	8.717
21.189262	8.719
21.342808	8.720
21.497467	8.721
21.653246	8.721
21.810154	8.721
21.968201	8.722
22.127390	8.722
22.287735	8.722
22.449242	8.721
22.611917	8.721
22.775772	8.721
22.940815	8.722
23.107054	8.723
23.274498	8.725
23.443153	8.725
23.613033	8.726
23.784142	8.725
23.956491	8.723
24.130091	8.718
24.304947	8.710
24.481071	8.698
24.658470	8.685
24.837156	8.671
25.017136	8.657
25.198421	8.643
25.381020	8.631
25.564941	8.621
25.750195	8.614
25.936790	8.610
26.124741	8.607
26.314051	8.604
26.504732	8.603
26.696796	8.602
26.890253	8.602
27.085112	8.602
27.281382	8.601
27.479073	8.601
27.678198	8.601
27.878765	8.601
28.080786	8.601
28.284271	8.601
28.489231	8.602
28.695675	8.602
28.903616	8.602
29.113064	8.602
29.324028	8.601
29.536524	8.601
29.750557	8.601
29.966141	8.601
30.183289	8.601
30.402010	8.602
30.622314	8.602
30.844217	8.603
31.067726	8.603
31.292856	8.602
31.519617	8.602
31.748020	8.600
31.978081	8.597
32.209808	8.593
32.443211	8.588
32.678310	8.582
32.915108	8.577
33.153625	8.570
33.393871	8.562
33.635857	8.553
33.879597	8.543
34.125103	8.533
34.372387	8.522
34.621464	8.512
34.872345	8.502
35.125042	8.493
35.379574	8.486
35.635948	8.482
35.894180	8.479
36.154285	8.478
36.416275	8.478
36.680161	8.479
36.945961	8.480
37.213688	8.481
37.483353	8.482
37.754974	8.482
38.028561	8.482
38.304131	8.482
38.581699	8.482
38.861279	8.482
39.142883	8.482
39.426529	8.482
39.712231	8.482
40.000000	8.481
40.289856	8.481
40.581814	8.481
40.875885	8.481
41.172089	8.481
41.470440	8.481
41.770950	8.482
42.073643	8.483
42.378525	8.484
42.685616	8.485
42.994934	8.486
43.306492	8.485
43.620308	8.483
43.936401	8.480
44.254780	8.473
44.575470	8.465
44.898483	8.455
45.223835	8.444
45.551544	8.432
45.881630	8.420
46.214108	8.408
46.548996	8.398
46.886307	8.390
47.226067	8.383
47.568283	8.377
47.912983	8.371
48.260181	8.364
48.609894	8.357
48.962143	8.348
49.316940	8.337
49.674313	8.325
50.034271	8.312
50.396843	8.299
50.762039	8.286
51.129883	8.272
51.500389	8.259
51.873581	8.247
52.249481	8.236
52.628101	8.226
53.009464	8.217
53.393593	8.208
53.780506	8.199
54.170223	8.191
54.562763	8.183
54.958145	8.175
55.356396	8.168
55.757530	8.160
56.161572	8.153
56.568542	8.145
56.978462	8.137
57.391350	8.129
57.807232	8.120
58.226128	8.110
58.648056	8.100
59.073048	8.090
59.501114	8.079
59.932281	8.068
60.366577	8.057
60.804020	8.045
61.244629	8.033
61.688435	8.021
62.135452	8.008
62.585712	7.995
63.039234	7.982
63.496040	7.969
63.956161	7.955
64.419617	7.942
64.886421	7.929
65.356621	7.916
65.830215	7.905
66.307251	7.895
66.787743	7.885
67.271713	7.875
67.759193	7.864
68.250206	7.851
68.744774	7.837
69.242928	7.819
69.744690	7.799
70.250084	7.777
70.759148	7.754
71.271896	7.730
71.788361	7.705
72.308571	7.681
72.832550	7.657
73.360321	7.633
73.891922	7.611
74.427376	7.590
74.966705	7.569
75.509949	7.548
76.057121	7.527
76.608261	7.506
77.163399	7.485
77.722557	7.464
78.285767	7.443
78.853058	7.421
79.424461	7.400
80.000000	7.378
80.579712	7.357
81.163628	7.335
81.751770	7.313
82.344177	7.292
82.940880	7.272
83.541901	7.252
84.147285	7.232
84.757050	7.212
85.371231	7.192
85.989868	7.172
86.612984	7.150
87.240616	7.127
87.872803	7.102
88.509560	7.076
89.150940	7.049
89.796967	7.022
90.447670	6.993
91.103088	6.964
91.763260	6.935
92.428215	6.904
93.097992	6.873
93.772614	6.841
94.452133	6.808
95.136566	6.774
95.825966	6.740
96.520363	6.705
97.219788	6.671
97.924286	6.636
98.633881	6.602
99.348625	6.567
100.068542	6.533
100.793686	6.499
101.524078	6.464
102.259766	6.430
103.000778	6.395
103.747162	6.361
104.498962	6.327
105.256203	6.293
106.018929	6.259
106.787186	6.225
107.561012	6.190
108.340446	6.156
109.125526	6.121
109.916290	6.085
110.712791	6.049
111.515060	6.013
112.323143	5.975
113.137085	5.938
113.956924	5.900
114.782700	5.861
115.614464	5.822
116.452255	5.783
117.296112	5.743
118.146095	5.702
119.002228	5.661
119.864563	5.620
120.733154	5.579
121.608040	5.538
122.489258	5.498
123.376869	5.458
124.270905	5.419
125.171425	5.380
126.078468	5.341
126.992081	5.301
127.912323	5.260
128.839233	5.218
129.772842	5.174
130.713242	5.129
131.660431	5.082
132.614502	5.034
133.575485	4.985
134.543427	4.934
135.518387	4.882
136.500412	4.826
137.489548	4.768
138.485855	4.708
139.489380	4.648
140.500168	4.587
141.518295	4.528
142.543793	4.470
143.576721	4.416
144.617142	4.367
145.665100	4.325
146.720642	4.286
147.783844	4.250
148.854752	4.214
149.933411	4.180
151.019897	4.145
152.114243	4.108
153.216522	4.068
154.326797	4.025
155.445114	3.981
156.571533	3.936
157.706116	3.890
158.848923	3.844
160.000000	3.797
161.159424	3.749
162.327255	3.701
163.503540	3.654
164.688354	3.606
165.881760	3.558
167.083801	3.511
168.294571	3.464
169.514099	3.418
170.742462	3.373
171.979736	3.330
173.225967	3.287
174.481232	3.245
175.745605	3.204
177.019119	3.162
178.301880	3.121
179.593933	3.080
180.895340	3.038
182.206177	2.997
183.526520	2.955
184.856430	2.913
186.195984	2.871
187.545227	2.829
188.904266	2.786
190.273132	2.742
191.651932	2.697
193.040726	2.652
194.439575	2.607
195.848572	2.562
197.267761	2.518
198.697250	2.474
200.137085	2.430
201.587372	2.388
203.048157	2.346
204.519531	2.305
206.001556	2.263
207.494324	2.222
208.997925	2.180
210.512405	2.139
212.037857	2.096
213.574371	2.053
215.122025	2.010
216.680893	1.967
218.251053	1.923
219.832581	1.880
221.425583	1.838
223.030121	1.796
224.646286	1.754
226.274170	1.714
227.913849	1.674
229.565399	1.635
231.228928	1.597
232.904510	1.560
234.592224	1.524
236.292191	1.490
238.004456	1.459
239.729126	1.429
241.466309	1.399
243.216080	1.371
244.978516	1.343
246.753738	1.316
248.541809	1.288
250.342850	1.260
252.156937	1.232
253.984161	1.203
255.824646	1.174
257.678467	1.146
259.545685	1.117
261.426483	1.088
263.320862	1.058
265.229004	1.029
267.150970	0.999
269.086853	0.969
271.036774	0.939
273.000824	0.909
274.979095	0.879
276.971710	0.850
278.978760	0.820
281.000336	0.791
283.036591	0.763
285.087585	0.736
287.153442	0.709
289.234283	0.683
291.330200	0.659
293.441284	0.636
295.567688	0.615
297.709503	0.594
299.866821	0.574
302.039795	0.555
304.228485	0.536
306.433044	0.517
308.653595	0.500
310.890228	0.482
313.143066	0.465
315.412231	0.449
317.697845	0.433
320.000000	0.417
322.318848	0.402
324.654510	0.387
327.007080	0.372
329.376709	0.356
331.763519	0.341
334.167603	0.325
336.589142	0.309
339.028198	0.293
341.484924	0.278
343.959473	0.263
346.451935	0.248
348.962463	0.235
351.491211	0.222
354.038239	0.210
356.603760	0.199
359.187866	0.188
361.790680	0.177
364.412354	0.167
367.053040	0.157
369.712860	0.146
372.391968	0.137
375.090454	0.127
377.808533	0.118
380.546265	0.109
383.303864	0.101
386.081451	0.094
388.879150	0.087
391.697144	0.082
394.535522	0.077
397.394501	0.073
400.274170	0.069
403.174744	0.065
406.096313	0.062
409.039062	0.060
412.003113	0.057
414.988647	0.055
417.995850	0.054
421.024811	0.053
424.075714	0.052
427.148743	0.052
430.244049	0.052
433.361786	0.053
436.502106	0.053
439.665161	0.054
442.851166	0.054
446.060242	0.053
449.292572	0.053
452.548340	0.053
455.827698	0.053
459.130798	0.053
462.457855	0.053
465.809021	0.054
469.184448	0.054
472.584381	0.055
476.008911	0.056
479.458252	0.055
482.932617	0.055
486.432159	0.052
489.957031	0.049
493.507477	0.043
497.083618	0.037
500.685699	0.030
504.313873	0.023
507.968323	0.016
511.649292	0.010
515.356934	0.003
519.091370	-0.002
522.852966	-0.005
526.641724	-0.007
530.458008	-0.006
534.301941	-0.005
538.173706	-0.003
542.073547	0.000
546.001648	0.004
549.958191	0.009
553.943420	0.014
557.957520	0.019
562.000671	0.025
566.073181	0.031
570.175171	0.036
574.306885	0.042
578.468567	0.046
582.660400	0.050
586.882568	0.052
591.135376	0.053
595.419006	0.053
599.733643	0.053
604.079590	0.053
608.456970	0.052
612.866089	0.051
617.307190	0.050
621.780457	0.049
626.286133	0.049
630.824463	0.051
635.395691	0.058
640.000000	0.070
644.637695	0.082
649.309021	0.092
654.014160	0.103
658.753418	0.114
663.527039	0.125
668.335205	0.137
673.178284	0.151
678.056396	0.166
682.969849	0.180
687.918945	0.195
692.903870	0.209
697.924927	0.224
702.982422	0.238
708.076477	0.253
713.207520	0.267
718.375732	0.282
723.581360	0.296
728.824707	0.311
734.106079	0.325
739.425720	0.340
744.783936	0.354
750.180908	0.369
755.617065	0.383
761.092529	0.398
766.607727	0.412
772.162903	0.427
777.758301	0.442
783.394287	0.457
789.071045	0.475
794.789001	0.493
800.548340	0.509
806.349487	0.524
812.192627	0.539
818.078125	0.553
824.006226	0.569
829.977295	0.587
835.991699	0.605
842.049622	0.621
848.151428	0.637
854.297485	0.655
860.488098	0.675
866.723572	0.695
873.004211	0.714
879.330322	0.732
885.702332	0.750
892.120483	0.768
898.585144	0.787
905.096680	0.808
911.655396	0.831
918.261597	0.856
924.915710	0.881
931.618042	0.904
938.368896	0.926
945.168762	0.948
952.017822	0.970
958.916504	0.994
965.865234	1.019
972.864319	1.045
979.914062	1.070
987.014954	1.096
994.167236	1.121
1001.371399	1.147
1008.627747	1.175
1015.936646	1.203
1023.298584	1.232
1030.713867	1.258
1038.182739	1.283
1045.705933	1.310
1053.283447	1.339
1060.916016	1.370
1068.603882	1.403
1076.347412	1.436
1084.147095	1.469
1092.003296	1.504
1099.916382	1.538
1107.886841	1.572
1115.915039	1.608
1124.001343	1.646
1132.146362	1.686
1140.350342	1.726
1148.613770	1.768
1156.937134	1.810
1165.320801	1.850
1173.765137	1.891
1182.270752	1.933
1190.838013	1.978
1199.467285	2.024
1208.159180	2.071
1216.913940	2.116
1225.732178	2.160
1234.614380	2.204
1243.560913	2.251
1252.572266	2.301
1261.648926	2.355
1270.791382	2.409
1280.000000	2.463
1289.275391	2.518
1298.618042	2.572
1308.028320	2.627
1317.506836	2.681
1327.054077	2.736
1336.670410	2.791
1346.356567	2.847
1356.112793	2.905
1365.939697	2.963
1375.837891	3.021
1385.807739	3.080
1395.849854	3.138
1405.964844	3.195
1416.152954	3.251
1426.415039	3.305
1436.751465	3.360
1447.162720	3.417
1457.649414	3.473
1468.212158	3.528
1478.851440	3.583
1489.567871	3.640
1500.361816	3.700
1511.234131	3.763
1522.185059	3.828
1533.215454	3.893
1544.325806	3.959
1555.516602	4.024
1566.788574	4.089
1578.142090	4.152
1589.578003	4.215
1601.096680	4.282
1612.698975	4.353
1624.385254	4.427
1636.156250	4.503
1648.012451	4.579
1659.954590	4.652
1671.983398	4.725
1684.099243	4.799
1696.302856	4.875
1708.594971	4.955
1720.976196	5.039
1733.447144	5.122
1746.008423	5.206
1758.660645	5.291
1771.404663	5.377
1784.240967	5.462
1797.170288	5.547
1810.193359	5.636
1823.310791	5.726
1836.523193	5.812
1849.831421	5.887
1863.236084	5.943
1876.737793	5.986
1890.337524	6.027
1904.035645	6.069
1917.833008	6.112
1931.730469	6.157
1945.728638	6.203
1959.828125	6.251
1974.029907	6.300
1988.334473	6.351
2002.742798	6.403
2017.255493	6.456
2031.873291	6.511
2046.597168	6.566
2061.427734	6.622
2076.365479	6.680
2091.411865	6.738
2106.566895	6.798
2121.832031	6.858
2137.207764	6.918
2152.694824	6.980
2168.294189	7.042
2184.006592	7.105
2199.832764	7.168
2215.773682	7.232
2231.830078	7.296
2248.002686	7.360
2264.292725	7.425
2280.700684	7.490
2297.227539	7.556
2313.874268	7.621
2330.641602	7.687
2347.530273	7.753
2364.541504	7.819
2381.676025	7.884
2398.934570	7.950
2416.318359	8.015
2433.827881	8.080
2451.464355	8.144
2469.228760	8.208
2487.121826	8.271
2505.144531	8.333
2523.297852	8.394
2541.582764	8.453
2560.000000	8.512
2578.550781	8.570
2597.236084	8.626
2616.056641	8.680
2635.013672	8.733
2654.108154	8.783
2673.340820	8.832
2692.713135	8.878
2712.225586	8.922
2731.879395	8.963
2751.675781	9.002
2771.615479	9.039
2791.699707	9.074
2811.929688	9.106
2832.305908	9.136
2852.830078	9.163
2873.502930	9.188
2894.325439	9.210
2915.298828	9.229
2936.424316	9.245
2957.702881	9.258
2979.135742	9.267
3000.723633	9.273
3022.468262	9.276
3044.370117	9.276
3066.430908	9.272
3088.651611	9.265
3111.033203	9.255
3133.577148	9.242
3156.284180	9.227
3179.156006	9.209
3202.193359	9.188
3225.397949	9.165
3248.770508	9.140
3272.312500	9.113
3296.024902	9.085
3319.909180	9.054
3343.966797	9.023
3368.198486	8.990
3392.605713	8.955
3417.189941	8.920
3441.952393	8.884
3466.894287	8.847
3492.016846	8.810
3517.321289	8.771
3542.809326	8.733
3568.481934	8.693
3594.340576	8.654
3620.386719	8.613
3646.621582	8.573
3673.046387	8.532
3699.662842	8.491
3726.472168	8.450
3753.475586	8.409
3780.675049	8.367
3808.071289	8.325
3835.666016	8.283
3863.460938	8.241
3891.457275	8.199
3919.656250	8.157
3948.059814	8.115
3976.668945	8.072
4005.485596	8.030
4034.510986	7.987
4063.746582	7.944
4093.194336	7.901
4122.855469	7.858
4152.730957	7.815
4182.823730	7.772
4213.133789	7.728
4243.664062	7.684
4274.415527	7.640
4305.389648	7.596
4336.588379	7.551
4368.013184	7.506
4399.665527	7.460
4431.547363	7.414
4463.660156	7.367
4496.005371	7.319
4528.585449	7.271
4561.401367	7.221
4594.455078	7.171
4627.748535	7.120
4661.283203	7.067
4695.060547	7.013
4729.083008	6.957
4763.352051	6.899
4797.869141	6.840
4832.636719	6.779
4867.655762	6.716
4902.928711	6.651
4938.457520	6.583
4974.243652	6.513
5010.289062	6.441
5046.595703	6.366
5083.165527	6.289
5120.000000	6.210
5157.101562	6.129
5194.472168	6.045
5232.113281	5.960
5270.027344	5.874
5308.216309	5.786
5346.681641	5.696
5385.426270	5.607
5424.451172	5.516
5463.758789	5.426
5503.351562	5.336
5543.230957	5.246
5583.399414	5.158
5623.859375	5.071
5664.611816	4.986
5705.660156	4.904
5747.005859	4.824
5788.650879	4.748
5830.597656	4.675
5872.848633	4.607
5915.405762	4.543
5958.271484	4.484
6001.447266	4.430
6044.936523	4.380
6088.740234	4.337
6132.861816	4.298
6177.303223	4.264
6222.066406	4.236
6267.154297	4.213
6312.568359	4.194
6358.312012	4.179
6404.386719	4.169
6450.795898	4.162
6497.541016	4.159
6544.625000	4.159
6592.049805	4.161
6639.818359	4.167
6687.933594	4.174
6736.396973	4.183
6785.211426	4.194
6834.379883	4.206
6883.904785	4.219
6933.788574	4.233
6984.033691	4.247
7034.642578	4.262
7085.618652	4.277
7136.963867	4.292
7188.681152	4.306
7240.773438	4.320
7293.243164	4.334
7346.092773	4.347
7399.325684	4.358
7452.944336	4.369
7506.951172	4.378
7561.350098	4.385
7616.142578	4.391
7671.332031	4.395
7726.921875	4.397
7782.914551	4.397
7839.312500	4.395
7896.119629	4.390
7953.337891	4.383
8010.971191	4.373
8069.021973	4.361
8127.493164	4.346
8186.388672	4.329
8245.710938	4.309
8305.461914	4.287
8365.647461	4.263
8426.267578	4.237
8487.328125	4.208
8548.831055	4.178
8610.779297	4.146
8673.176758	4.112
8736.026367	4.076
8799.331055	4.033
8863.094727	3.971
8927.320312	3.890
8992.010742	3.803
9057.170898	3.726
9122.802734	3.656
9188.910156	3.586
9255.497070	3.513
9322.566406	3.441
9390.121094	3.372
9458.166016	3.302
9526.704102	3.227
9595.738281	3.142
9665.273438	3.053
9735.311523	2.968
9805.857422	2.892
9876.915039	2.823
9948.487305	2.755
10020.578125	2.682
10093.191406	2.607
10166.331055	2.538
10240.000000	2.472
10314.203125	2.399
10388.944336	2.322
10464.226562	2.253
10540.054688	2.189
10616.432617	2.113
10693.363281	2.023
10770.852539	1.928
10848.902344	1.842
10927.517578	1.773
11006.703125	1.713
11086.461914	1.641
11166.798828	1.554
11247.718750	1.459
11329.223633	1.364
11411.320312	1.269
11494.011719	1.174
11577.301758	1.080
11661.195312	0.985
11745.697266	0.890
11830.811523	0.795
11916.542969	0.701
12002.894531	0.606
12089.873047	0.511
12177.480469	0.416
12265.723633	0.322
12354.606445	0.227
12444.132812	0.132
12534.308594	0.034
12625.136719	-0.073
12716.624023	-0.189
12808.773438	-0.309
12901.591797	-0.427
12995.082031	-0.534
13089.250000	-0.635
13184.099609	-0.737
13279.636719	-0.847
13375.867188	-0.961
13472.793945	-1.068
13570.422852	-1.153
13668.759766	-1.223
13767.809570	-1.300
13867.577148	-1.389
13968.067383	-1.485
14069.285156	-1.580
14171.237305	-1.675
14273.927734	-1.770
14377.362305	-1.865
14481.546875	-1.959
14586.486328	-2.054
14692.185547	-2.149
14798.651367	-2.244
14905.888672	-2.338
15013.902344	-2.433
15122.700195	-2.528
15232.285156	-2.623
15342.664062	-2.717
15453.843750	-2.812
15565.829102	-2.907
15678.625000	-3.002
15792.239258	-3.097
15906.675781	-3.191
16021.942383	-3.286
16138.043945	-3.381
16254.986328	-3.476
16372.777344	-3.571
16491.421875	-3.665
16610.923828	-3.760
16731.294922	-3.855
16852.535156	-3.950
16974.656250	-4.045
17097.662109	-4.139
17221.558594	-4.234
17346.353516	-4.329
17472.052734	-4.424
17598.662109	-4.519
17726.189453	-4.614
17854.640625	-4.708
17984.021484	-4.803
18114.341797	-4.898
18245.605469	-4.993
18377.820312	-5.088
18510.994141	-5.182
18645.132812	-5.277
18780.242188	-5.371
18916.332031	-5.466
19053.408203	-5.569
19191.476562	-5.688
19330.546875	-5.816
19470.623047	-5.937
19611.714844	-6.041
19753.830078	-6.129
