FFT	AudioTools 	v14.10.3 iPad battery  56%	2021/09/08 11:22	Headset Mic 3 Low Range	EB05A3E2-10AC-49FE-A287-06AC06EBE5AD
Frequency	dB	Unweighted
19.5	51
19.8	51
20.1	51.1
20.3	51.2
20.6	51.3
20.9	51.5
21.2	51.6
21.6	51.7
21.9	51.9
22.2	52
22.5	52.1
22.8	52.2
23.2	52.3
23.5	52.4
23.8	52.5
24.2	52.5
24.5	52.6
24.9	52.7
25.3	52.8
25.6	52.9
26	53
26.4	53.1
26.8	53.2
27.2	53.3
27.5	53.4
28	53.5
28.4	53.6
28.8	53.8
29.2	53.9
29.6	54.1
30	54.2
30.5	54.4
30.9	54.5
31.4	54.5
31.8	54.6
32.3	54.6
32.8	54.6
33.2	54.6
33.7	54.6
34.2	54.7
34.7	54.7
35.2	54.8
35.7	54.8
36.2	54.8
36.8	54.9
37.3	54.9
37.9	55
38.4	55.2
39	55.4
39.5	55.5
40.1	55.6
40.7	55.7
41.3	55.8
41.9	55.9
42.5	56
43.1	56.1
43.7	56.1
44.4	56
45	55.9
45.7	55.9
46.3	55.8
47	55.8
47.7	55.7
48.4	55.7
49.1	55.6
49.8	55.5
50.5	55.5
51.3	55.5
52	55.5
52.8	55.5
53.5	55.5
54.3	55.6
55.1	55.6
55.9	55.7
56.7	55.8
57.5	55.8
58.4	55.9
59.2	55.9
60.1	56
61	56
61.8	56
62.7	56
63.7	56
64.6	56
65.5	56.1
66.5	56.1
67.4	56.1
68.4	56.2
69.4	56.2
70.4	56.2
71.5	56.3
72.5	56.4
73.5	56.3
74.6	56.3
75.7	56.3
76.8	56.3
77.9	56.2
79.1	56.2
80.2	56.1
81.4	56
82.6	56
83.8	56.1
85	56.1
86.2	56.1
87.5	56.1
88.7	56.1
90	56.2
91.3	56.2
92.7	56.3
94	56.4
95.4	56.4
96.8	56.4
98.2	56.4
99.6	56.4
101	56.5
103	56.5
104	56.5
106	56.5
107	56.4
109	56.3
110	56.2
112	56.2
113	56.3
115	56.3
117	56.3
118	56.3
120	56.3
122	56.2
124	56.1
125	56
127	55.9
129	55.9
131	56
133	56
135	56
137	55.9
139	55.7
141	55.6
143	55.6
145	55.6
147	55.6
149	55.6
151	55.5
154	55.4
156	55.4
158	55.4
160	55.4
163	55.4
165	55.4
168	55.4
170	55.4
172	55.3
175	55.2
177	55.2
180	55.1
183	55.1
185	55
188	55
191	55.1
194	55.1
196	55.1
199	55
202	54.9
205	54.9
208	54.8
211	54.8
214	54.7
217	54.7
220	54.6
224	54.6
227	54.6
230	54.4
234	54.3
237	54.3
240	54.3
244	54.3
247	54.2
251	54.1
255	54
258	53.9
262	54
266	54
270	53.9
274	53.9
278	53.8
282	53.7
286	53.6
290	53.6
294	53.5
298	53.5
303	53.4
307	53.4
312	53.3
316	53.3
321	53.3
325	53.3
330	53.2
335	53.1
340	53
345	52.9
350	52.9
355	52.9
360	53
365	52.9
371	52.8
376	52.7
382	52.7
387	52.7
393	52.6
398	52.6
404	52.6
410	52.6
416	52.6
422	52.5
428	52.4
434	52.3
441	52.2
447	52.1
454	52.1
460	52.1
467	52.1
474	52.1
481	52
488	52
495	52
502	52
509	52
517	51.9
524	51.9
532	51.8
540	51.8
547	51.7
555	51.7
563	51.7
572	51.6
580	51.6
588	51.6
597	51.5
606	51.5
614	51.5
623	51.5
632	51.4
642	51.4
651	51.4
660	51.5
670	51.4
680	51.4
690	51.4
700	51.3
710	51.3
720	51.3
731	51.3
741	51.3
752	51.3
763	51.3
774	51.3
785	51.3
797	51.3
808	51.3
820	51.4
832	51.4
844	51.4
856	51.5
869	51.5
882	51.6
894	51.6
907	51.6
921	51.6
934	51.6
948	51.6
961	51.6
975	51.6
990	51.6
1004	51.7
1019	51.9
1033	52.1
1048	52.2
1064	52.3
1079	52.4
1095	52.6
1111	52.8
1127	53
1143	53.2
1160	53.4
1177	53.7
1194	53.9
1211	54.1
1229	54.3
1247	54.5
1265	54.8
1283	55
1302	55.2
1321	55.4
1340	55.6
1360	55.8
1379	56
1399	56.2
1420	56.4
1440	56.6
1461	56.7
1483	56.9
1504	57.1
1526	57.2
1548	57.4
1571	57.6
1594	57.7
1617	57.9
1640	58.1
1664	58.3
1688	58.5
1713	58.8
1738	59
1763	59.2
1789	59.4
1815	59.7
1841	59.9
1868	60.2
1895	60.4
1923	60.6
1951	60.8
1979	61.1
2008	61.3
2037	61.5
2067	61.8
2097	62
2127	62.2
2158	62.4
2190	62.6
2221	62.7
2254	62.8
2287	62.9
2320	63
2354	63.1
2388	63.1
2423	63
2458	63
2494	62.9
2530	62.8
2567	62.7
2604	62.5
2642	62.4
2680	62.2
2719	62.1
2759	61.8
2799	61.7
2840	61.5
2881	61.3
2923	61.1
2965	61
3008	60.8
3052	60.6
3097	60.5
3142	60.4
3187	60.2
3234	60.1
3281	60
3328	59.9
3377	59.9
3426	59.8
3476	59.8
3526	59.8
3578	59.8
3630	59.8
3682	59.9
3736	59.9
3790	60.1
3846	60.2
3901	60.3
3958	60.5
4016	60.7
4074	60.9
4133	61.1
4194	61.3
4255	61.6
4316	61.7
4379	61.7
4443	61.7
4508	61.5
4573	61.3
4640	61
4707	60.6
4776	60.2
4845	59.7
4916	59.1
4987	58.4
5060	57.7
5133	57
5208	56.3
5284	55.6
5360	55
5438	54.3
5518	53.6
5598	53
5679	52.5
5762	51.9
5846	51.4
5931	50.9
6017	50.5
6104	50.1
6193	49.7
6283	49.3
6375	49
6467	48.7
6561	48.4
6657	48.2
6754	48.1
6852	48
6952	48
7053	48
7155	48.1
7259	48.3
7365	48.5
7472	48.8
7581	49.2
7691	49.6
7803	50.1
7916	50.7
8032	51.3
8148	51.9
8267	52.5
8387	53
8509	53.5
8633	53.7
8758	53.7
8886	53.5
9015	53
9146	52.3
9279	51.4
9414	50.4
9551	49.4
9690	48.3
9831	47.3
9974	46
10119	45.2
10266	44.4
10416	43.8
10567	43.3
10721	42.8
10877	42.4
11035	42.1
11196	41.9
11358	41.8
11524	41.8
11691	41.9
11861	42.1
12034	42.4
12209	42.9
12386	43.6
12567	44.4
12749	45.5
12935	46.8
13123	48.2
13314	49.5
13507	50.4
13704	50.8
13903	50.6
14105	49.9
14311	48.9
14519	47.9
14730	47
14944	46.2
15162	45.6
15382	45.1
15606	45.1
15833	45.1
16063	45.1
16297	44.7
16534	43.9
16774	42.6
17018	41
17266	39.1
17517	37.1
17772	35.2
18030	33.5
18293	32
18559	30.6
18829	29.2
19102	27.9
19380	26.7
20000	25.8
overall dB	84.1 dB
decay	Average
averaging	1/6 Octave
source	Headset Mic 3 Low Range
latitude	0
longitude	0
saved	2021/09/08 11:22
peak	43.9Hz
