* More info about this measurement = https://www.achoreviews.com/solospec
*
* Freq(Hz)	SPL(dB)	Phase(degrees)
20.000000	88.384	-144.5310
20.299999	88.410	-145.0176
20.600000	88.432	-145.5122
20.900000	88.448	-146.0187
21.200001	88.455	-146.5370
21.400000	88.455	-146.8843
21.799999	88.441	-147.5628
22.000000	88.428	-147.8811
22.400000	88.394	-148.4481
22.700001	88.366	-148.8026
23.000000	88.343	-149.1059
23.299999	88.328	-149.3891
23.600000	88.322	-149.6872
24.000000	88.322	-150.1563
24.299999	88.323	-150.5770
24.700001	88.316	-151.2075
25.000000	88.303	-151.6947
25.400000	88.276	-152.3117
25.799999	88.246	-152.8612
26.200001	88.220	-153.3531
26.500000	88.203	-153.7044
26.900000	88.185	-154.1698
27.200001	88.172	-154.5199
27.600000	88.153	-154.9786
28.000000	88.130	-155.4097
28.500000	88.099	-155.8924
29.000000	88.069	-156.3146
29.500000	88.042	-156.6916
30.000000	88.018	-157.0460
30.400000	88.001	-157.3314
30.700001	87.989	-157.5546
31.100000	87.972	-157.8686
31.500000	87.953	-158.1976
32.000000	87.927	-158.6161
32.500000	87.900	-159.0358
33.000000	87.874	-159.4683
33.500000	87.848	-159.9249
34.000000	87.820	-160.3907
34.500000	87.788	-160.8249
35.000000	87.758	-161.1942
35.500000	87.735	-161.4964
36.000000	87.724	-161.7592
36.500000	87.721	-162.0126
37.000000	87.723	-162.2641
37.500000	87.725	-162.4982
38.200001	87.732	-162.7879
38.700001	87.740	-163.0159
39.500000	87.737	-163.5484
40.000000	87.703	-163.9327
40.599998	87.622	-164.2520
41.200001	87.526	-164.2679
41.799999	87.454	-164.0602
42.500000	87.419	-163.8267
43.099998	87.418	-163.8000
43.700001	87.430	-163.9543
44.400002	87.451	-164.3637
45.000000	87.462	-164.8945
45.500000	87.460	-165.3938
46.200001	87.443	-166.0528
46.799999	87.429	-166.5510
47.500000	87.413	-167.1009
48.200001	87.388	-167.5662
48.700001	87.368	-167.7853
49.400002	87.355	-167.9626
50.000000	87.362	-168.1229
50.799999	87.370	-168.4591
51.500000	87.360	-168.7944
52.200001	87.339	-169.0974
53.000000	87.308	-169.4135
53.799999	87.271	-169.6906
54.500000	87.240	-169.8871
55.200001	87.215	-170.0689
56.000000	87.191	-170.2917
57.000000	87.159	-170.5838
58.000000	87.124	-170.8382
59.000000	87.097	-171.0087
60.000000	87.094	-171.2186
60.799999	87.096	-171.5115
61.500000	87.091	-171.8212
62.200001	87.079	-172.1197
63.000000	87.065	-172.4152
64.000000	87.050	-172.7204
65.000000	87.040	-172.9733
66.000000	87.029	-173.1861
67.000000	87.014	-173.3655
68.000000	86.992	-173.5209
69.000000	86.965	-173.6549
70.000000	86.938	-173.7760
71.000000	86.921	-173.9380
72.000000	86.908	-174.1872
73.000000	86.894	-174.4859
74.000000	86.880	-174.7796
75.000000	86.867	-175.0464
76.199997	86.852	-175.3204
77.500000	86.835	-175.5667
78.800003	86.814	-175.7726
80.000000	86.794	-175.9493
81.199997	86.775	-176.1281
82.500000	86.756	-176.3348
83.800003	86.737	-176.5573
85.000000	86.717	-176.7635
86.199997	86.691	-176.9546
87.500000	86.658	-177.1306
88.500000	86.632	-177.2454
90.000000	86.598	-177.4292
91.199997	86.578	-177.6140
92.500000	86.559	-177.8475
93.800003	86.542	-178.0801
95.000000	86.526	-178.2425
96.199997	86.512	-178.3396
97.500000	86.500	-178.4016
98.800003	86.488	-178.4517
100.000000	86.475	-178.5142
101.500000	86.456	-178.6436
103.000000	86.432	-178.8370
104.400002	86.406	-179.0368
106.000000	86.378	-179.2340
107.500000	86.359	-179.4107
109.000000	86.342	-179.5973
110.599998	86.324	-179.7862
112.000000	86.307	-179.9287
113.800003	86.285	179.9299
115.000000	86.271	179.8597
117.199997	86.247	179.7262
118.000000	86.238	179.6606
120.599998	86.203	179.4075
122.000000	86.184	179.2953
124.099998	86.161	179.1776
125.000000	86.153	179.1303
126.500000	86.138	179.0437
128.000000	86.122	178.9518
131.500000	86.093	178.7071
132.000000	86.090	178.6695
134.000000	86.078	178.5175
136.000000	86.055	178.3728
138.000000	86.019	178.2565
140.000000	85.981	178.1486
143.000000	85.933	177.9717
145.000000	85.909	177.8689
147.500000	85.885	177.7906
150.000000	85.862	177.7567
152.500000	85.831	177.7243
155.000000	85.792	177.6671
157.500000	85.754	177.5689
160.000000	85.721	177.4536
162.500000	85.691	177.3538
165.000000	85.658	177.2798
167.500000	85.623	177.2408
170.000000	85.588	177.2240
172.500000	85.555	177.2071
175.000000	85.521	177.1901
177.500000	85.492	177.1689
180.000000	85.466	177.1340
182.500000	85.438	177.1043
185.000000	85.406	177.0924
187.500000	85.374	177.0878
190.000000	85.343	177.0752
192.500000	85.312	177.0407
195.000000	85.280	176.9835
197.500000	85.247	176.9384
200.000000	85.214	176.9588
203.000000	85.175	177.0740
206.000000	85.140	177.1769
209.000000	85.107	177.2005
212.000000	85.075	177.1999
214.000000	85.053	177.2116
218.000000	85.006	177.2638
220.000000	84.981	177.2961
224.000000	84.933	177.3649
227.000000	84.897	177.4236
230.000000	84.858	177.4929
233.000000	84.816	177.5692
236.000000	84.776	177.6434
240.000000	84.731	177.7293
243.000000	84.704	177.7916
247.000000	84.667	177.8927
250.000000	84.637	177.9862
254.000000	84.593	178.1324
258.000000	84.548	178.3086
262.000000	84.507	178.5007
265.000000	84.477	178.6232
269.000000	84.436	178.7425
272.000000	84.405	178.8297
276.000000	84.363	178.9783
280.000000	84.324	179.1562
285.000000	84.276	179.3859
290.000000	84.225	179.6115
295.000000	84.171	179.8373
300.000000	84.119	-179.9322
304.000000	84.080	-179.7410
307.000000	84.054	-179.5908
311.000000	84.020	-179.3813
315.000000	83.985	-179.1705
320.000000	83.940	-178.9160
325.000000	83.894	-178.6571
330.000000	83.850	-178.3788
335.000000	83.807	-178.0839
340.000000	83.766	-177.7838
345.000000	83.725	-177.4913
350.000000	83.684	-177.1989
355.000000	83.645	-176.9000
360.000000	83.607	-176.6037
365.000000	83.568	-176.3067
370.000000	83.528	-175.9909
375.000000	83.488	-175.6489
382.000000	83.436	-175.1527
387.000000	83.400	-174.8140
395.000000	83.345	-174.3038
400.000000	83.311	-173.9816
406.000000	83.273	-173.5803
412.000000	83.237	-173.1685
418.000000	83.200	-172.7482
425.000000	83.157	-172.2494
431.000000	83.119	-171.8142
437.000000	83.082	-171.3718
444.000000	83.042	-170.8544
450.000000	83.010	-170.4072
455.000000	82.984	-170.0282
462.000000	82.948	-169.4915
468.000000	82.917	-169.0278
475.000000	82.883	-168.4888
482.000000	82.852	-167.9561
487.000000	82.830	-167.5753
494.000000	82.800	-167.0368
500.000000	82.775	-166.5707
508.000000	82.743	-165.9469
515.000000	82.716	-165.3974
522.000000	82.691	-164.8416
530.000000	82.662	-164.2057
538.000000	82.635	-163.5716
545.000000	82.612	-163.0147
552.000000	82.590	-162.4510
560.000000	82.565	-161.7932
570.000000	82.539	-160.9581
580.000000	82.514	-160.1233
590.000000	82.490	-159.2904
600.000000	82.469	-158.4590
608.000000	82.454	-157.7942
615.000000	82.442	-157.2131
622.000000	82.430	-156.6320
630.000000	82.418	-155.9653
640.000000	82.403	-155.1256
650.000000	82.391	-154.2789
660.000000	82.382	-153.4279
670.000000	82.374	-152.5728
680.000000	82.366	-151.7158
690.000000	82.360	-150.8643
700.000000	82.357	-150.0172
710.000000	82.355	-149.1664
720.000000	82.355	-148.3039
730.000000	82.356	-147.4296
740.000000	82.357	-146.5489
750.000000	82.359	-145.6661
762.000000	82.364	-144.6004
775.000000	82.374	-143.4276
788.000000	82.388	-142.2313
800.000000	82.405	-141.1104
812.000000	82.424	-139.9774
825.000000	82.452	-138.7437
838.000000	82.487	-137.5044
850.000000	82.525	-136.3506
862.000000	82.569	-135.1866
875.000000	82.623	-133.9234
885.000000	82.670	-132.9582
900.000000	82.747	-131.5304
912.000000	82.815	-130.4076
925.000000	82.897	-129.2115
938.000000	82.985	-128.0364
950.000000	83.072	-126.9736
962.000000	83.164	-125.9365
975.000000	83.269	-124.8484
988.000000	83.379	-123.8008
1000.000000	83.483	-122.8685
1015.000000	83.617	-121.7490
1030.000000	83.754	-120.6774
1044.000000	83.886	-119.7204
1060.000000	84.038	-118.6839
1075.000000	84.182	-117.7707
1090.000000	84.327	-116.9108
1106.000000	84.481	-116.0479
1120.000000	84.615	-115.3349
1138.000000	84.785	-114.4689
1150.000000	84.898	-113.9205
1172.000000	85.101	-112.9689
1180.000000	85.174	-112.6393
1206.000000	85.408	-111.6229
1220.000000	85.532	-111.1063
1241.000000	85.714	-110.3639
1250.000000	85.791	-110.0555
1265.000000	85.918	-109.5532
1280.000000	86.044	-109.0657
1315.000000	86.328	-107.9905
1320.000000	86.368	-107.8433
1340.000000	86.527	-107.2648
1360.000000	86.685	-106.6971
1380.000000	86.842	-106.1402
1400.000000	86.997	-105.5984
1430.000000	87.228	-104.8227
1450.000000	87.383	-104.3316
1475.000000	87.576	-103.7407
1500.000000	87.769	-103.1755
1525.000000	87.963	-102.6388
1550.000000	88.158	-102.1342
1575.000000	88.355	-101.6677
1600.000000	88.553	-101.2426
1625.000000	88.753	-100.8608
1650.000000	88.954	-100.5218
1675.000000	89.156	-100.2291
1700.000000	89.359	-99.9893
1725.000000	89.562	-99.8047
1750.000000	89.765	-99.6787
1775.000000	89.967	-99.6155
1800.000000	90.169	-99.6178
1825.000000	90.368	-99.6878
1850.000000	90.566	-99.8267
1875.000000	90.760	-100.0352
1900.000000	90.950	-100.3162
1925.000000	91.135	-100.6718
1950.000000	91.314	-101.1007
1975.000000	91.485	-101.6006
2000.000000	91.648	-102.1714
2030.000000	91.830	-102.9470
2060.000000	91.997	-103.8123
2090.000000	92.146	-104.7559
2120.000000	92.277	-105.7660
2140.000000	92.353	-106.4703
2180.000000	92.478	-107.9354
2200.000000	92.527	-108.6873
2240.000000	92.596	-110.2053
2270.000000	92.622	-111.3368
2300.000000	92.627	-112.4453
2330.000000	92.613	-113.5159
2360.000000	92.580	-114.5344
2400.000000	92.509	-115.7903
2430.000000	92.438	-116.6440
2470.000000	92.323	-117.6523
2500.000000	92.224	-118.3057
2540.000000	92.077	-119.0348
2580.000000	91.919	-119.5999
2620.000000	91.752	-120.0032
2650.000000	91.623	-120.2029
2690.000000	91.449	-120.3377
2720.000000	91.318	-120.3454
2760.000000	91.143	-120.2402
2800.000000	90.972	-120.0129
2850.000000	90.766	-119.5720
2900.000000	90.568	-118.9780
2950.000000	90.381	-118.2555
3000.000000	90.206	-117.4253
3040.000000	90.076	-116.6932
3070.000000	89.985	-116.1085
3110.000000	89.870	-115.2880
3150.000000	89.764	-114.4288
3200.000000	89.643	-113.3120
3250.000000	89.535	-112.1606
3300.000000	89.441	-110.9905
3350.000000	89.359	-109.8145
3400.000000	89.291	-108.6418
3450.000000	89.234	-107.4795
3500.000000	89.188	-106.3343
3550.000000	89.152	-105.2160
3600.000000	89.126	-104.1364
3650.000000	89.109	-103.1054
3700.000000	89.099	-102.1317
3750.000000	89.095	-101.2233
3820.000000	89.097	-100.0723
3870.000000	89.102	-99.3401
3950.000000	89.111	-98.3343
4000.000000	89.116	-97.8166
4060.000000	89.115	-97.3109
4120.000000	89.105	-96.9291
4180.000000	89.083	-96.6659
4250.000000	89.036	-96.4946
4310.000000	88.974	-96.4472
4370.000000	88.889	-96.4715
4440.000000	88.757	-96.5554
4500.000000	88.614	-96.6390
4550.000000	88.475	-96.6939
4620.000000	88.249	-96.7162
4680.000000	88.027	-96.6542
4750.000000	87.739	-96.4492
4820.000000	87.421	-96.0690
4870.000000	87.180	-95.6763
4940.000000	86.825	-94.9460
5000.000000	86.510	-94.1486
5080.000000	86.078	-92.8353
5150.000000	85.694	-91.4491
5220.000000	85.310	-89.8472
5300.000000	84.876	-87.7707
5380.000000	84.452	-85.4513
5450.000000	84.092	-83.2365
5520.000000	83.746	-80.8634
5600.000000	83.368	-77.9723
5700.000000	82.923	-74.1187
5800.000000	82.514	-70.0409
5900.000000	82.144	-65.7807
6000.000000	81.816	-61.3789
6080.000000	81.584	-57.7768
6150.000000	81.404	-54.5762
6220.000000	81.246	-51.3405
6300.000000	81.092	-47.6121
6400.000000	80.940	-42.9241
6500.000000	80.833	-38.2269
6600.000000	80.773	-33.5419
6700.000000	80.760	-28.8921
6800.000000	80.797	-24.2979
6900.000000	80.883	-19.7852
7000.000000	81.025	-15.3913
7100.000000	81.224	-11.1630
7200.000000	81.484	-7.1574
7300.000000	81.805	-3.4328
7400.000000	82.185	-0.0503
7500.000000	82.622	2.9140
7620.000000	83.216	5.7915
7750.000000	83.925	7.8595
7880.000000	84.663	8.5581
8000.000000	85.315	7.7615
8120.000000	85.873	5.4660
8250.000000	86.286	1.3983
8380.000000	86.424	-3.8070
8500.000000	86.269	-8.8487
8620.000000	85.853	-13.3079
8750.000000	85.166	-16.7932
8850.000000	84.524	-18.3100
9000.000000	83.483	-18.7357
9120.000000	82.655	-17.7273
9250.000000	81.816	-15.6142
9380.000000	81.064	-12.7239
9500.000000	80.458	-9.5580
9620.000000	79.939	-6.0545
9750.000000	79.477	-2.0132
9880.000000	79.115	2.1583
10000.000000	78.867	6.0401
10150.000000	78.664	10.8643
10300.000000	78.581	15.5850
10440.000000	78.617	19.7814
10600.000000	78.798	24.1249
10750.000000	79.101	27.5455
10900.000000	79.517	30.0909
11060.000000	80.051	31.5026
11200.000000	80.548	31.3315
11380.000000	81.127	28.8359
11500.000000	81.410	25.7023
11720.000000	81.569	17.4351
11800.000000	81.484	13.9145
12060.000000	80.626	2.5661
12200.000000	79.812	-2.3699
12410.000000	78.238	-6.8574
12500.000000	77.492	-7.6634
12650.000000	76.249	-7.8933
12800.000000	75.079	-7.2789
13150.000000	72.780	-4.8155
13200.000000	72.499	-4.4670
13400.000000	71.473	-3.3028
13600.000000	70.573	-2.6524
13800.000000	69.755	-2.5324
14000.000000	68.988	-2.7944
14300.000000	67.926	-3.4723
14500.000000	67.315	-3.8691
14750.000000	66.764	-4.1870
15000.000000	66.591	-4.5836
15250.000000	66.895	-5.8187
15500.000000	67.640	-8.9773
15750.000000	68.672	-15.0628
16000.000000	69.776	-24.8102
16250.000000	70.729	-38.5559
16500.000000	71.351	-55.9405
16750.000000	71.546	-75.9442
17000.000000	71.321	-97.6230
17250.000000	70.781	-121.8194
17500.000000	69.987	-153.5771
17750.000000	68.837	154.2151
18000.000000	67.195	53.8671
18250.000000	65.049	-134.6554
18500.000000	62.488	-57.9965
18750.000000	59.681	1.2858
19000.000000	57.139	130.5729
19250.000000	55.846	-18.3951
19500.000000	55.954	-111.5482
19750.000000	56.462	-168.8103
