* More info about this measurement = https://www.achoreviews.com/solospec
*
* Freq(Hz)	SPL(dB)	Phase(degrees)
20.299999	81.778	-66.9881
20.600000	81.831	-67.3845
20.900000	81.962	-68.2317
21.200001	82.106	-69.1920
21.400000	82.202	-69.8611
21.799999	82.390	-71.2436
22.000000	82.478	-71.9414
22.400000	82.640	-73.3140
22.700001	82.748	-74.2815
23.000000	82.847	-75.1635
23.299999	82.940	-75.9576
23.600000	83.030	-76.6844
24.000000	83.151	-77.6055
24.299999	83.242	-78.3136
24.700001	83.361	-79.3319
25.000000	83.445	-80.1623
25.400000	83.549	-81.3392
25.799999	83.643	-82.5443
26.200001	83.732	-83.7204
26.500000	83.797	-84.5597
26.900000	83.884	-85.6109
27.200001	83.950	-86.3519
27.600000	84.039	-87.2909
28.000000	84.125	-88.1948
28.500000	84.228	-89.3017
29.000000	84.322	-90.3989
29.500000	84.411	-91.4889
30.000000	84.497	-92.5713
30.400000	84.567	-93.4327
30.700001	84.619	-94.0765
31.100000	84.688	-94.9290
31.500000	84.756	-95.7702
32.000000	84.837	-96.7997
32.500000	84.915	-97.8074
33.000000	84.990	-98.8046
33.500000	85.063	-99.7965
34.000000	85.132	-100.7755
34.500000	85.198	-101.7315
35.000000	85.264	-102.6652
35.500000	85.327	-103.5836
36.000000	85.386	-104.4843
36.500000	85.442	-105.3539
37.000000	85.496	-106.1850
37.500000	85.550	-106.9887
38.200001	85.625	-108.1046
38.700001	85.672	-108.9012
39.500000	85.738	-110.1515
40.000000	85.779	-110.9211
40.599998	85.831	-111.8507
41.200001	85.884	-112.7846
41.799999	85.936	-113.6976
42.500000	85.994	-114.7136
43.099998	86.042	-115.5510
43.700001	86.089	-116.3766
44.400002	86.144	-117.3343
45.000000	86.188	-118.1431
45.500000	86.223	-118.8026
46.200001	86.268	-119.7109
46.799999	86.303	-120.4859
47.500000	86.347	-121.3781
48.200001	86.407	-122.2512
48.700001	86.460	-122.8814
49.400002	86.532	-123.7923
50.000000	86.573	-124.5599
50.799999	86.589	-125.4610
51.500000	86.588	-126.1348
52.200001	86.594	-126.7924
53.000000	86.614	-127.5916
53.799999	86.643	-128.4192
54.500000	86.669	-129.1353
55.200001	86.690	-129.8293
56.000000	86.713	-130.5916
57.000000	86.741	-131.5166
58.000000	86.766	-132.4209
59.000000	86.791	-133.3089
60.000000	86.820	-134.2118
60.799999	86.844	-134.9379
61.500000	86.864	-135.5489
62.200001	86.880	-136.1249
63.000000	86.897	-136.7520
64.000000	86.917	-137.5236
65.000000	86.936	-138.2946
66.000000	86.954	-139.0482
67.000000	86.973	-139.7734
68.000000	86.988	-140.4791
69.000000	87.001	-141.1771
70.000000	87.010	-141.8673
71.000000	87.018	-142.5417
72.000000	87.027	-143.1972
73.000000	87.036	-143.8359
74.000000	87.044	-144.4570
75.000000	87.051	-145.0587
76.199997	87.057	-145.7570
77.500000	87.061	-146.4983
78.800003	87.063	-147.2387
80.000000	87.063	-147.9075
81.199997	87.064	-148.5446
82.500000	87.067	-149.2071
83.800003	87.068	-149.8546
85.000000	87.068	-150.4376
86.199997	87.067	-151.0047
87.500000	87.065	-151.6040
88.500000	87.063	-152.0566
90.000000	87.059	-152.7206
91.199997	87.054	-153.2388
92.500000	87.048	-153.7906
93.800003	87.041	-154.3362
95.000000	87.034	-154.8339
96.199997	87.025	-155.3204
97.500000	87.016	-155.8279
98.800003	87.008	-156.3113
100.000000	87.003	-156.7393
101.500000	86.999	-157.2594
103.000000	86.996	-157.7661
104.400002	86.990	-158.2240
106.000000	86.981	-158.7324
107.500000	86.969	-159.1974
109.000000	86.957	-159.6519
110.599998	86.945	-160.1322
112.000000	86.934	-160.5515
113.800003	86.921	-161.0774
115.000000	86.913	-161.4138
117.199997	86.900	-162.0003
118.000000	86.895	-162.2037
120.599998	86.874	-162.8376
122.000000	86.860	-163.1776
124.099998	86.842	-163.6994
125.000000	86.835	-163.9202
126.500000	86.825	-164.2711
128.000000	86.815	-164.5985
131.500000	86.787	-165.3085
132.000000	86.782	-165.4059
134.000000	86.763	-165.7909
136.000000	86.744	-166.1750
138.000000	86.725	-166.5591
140.000000	86.706	-166.9336
143.000000	86.676	-167.4589
145.000000	86.654	-167.7865
147.500000	86.629	-168.1738
150.000000	86.606	-168.5458
152.500000	86.584	-168.9155
155.000000	86.560	-169.2780
157.500000	86.534	-169.6263
160.000000	86.508	-169.9545
162.500000	86.483	-170.2659
165.000000	86.457	-170.5659
167.500000	86.430	-170.8528
170.000000	86.404	-171.1277
172.500000	86.378	-171.3920
175.000000	86.353	-171.6456
177.500000	86.327	-171.8884
180.000000	86.301	-172.1229
182.500000	86.275	-172.3515
185.000000	86.249	-172.5735
187.500000	86.223	-172.7832
190.000000	86.197	-172.9781
192.500000	86.170	-173.1622
195.000000	86.144	-173.3398
197.500000	86.119	-173.5129
200.000000	86.094	-173.6802
203.000000	86.064	-173.8658
206.000000	86.034	-174.0358
209.000000	86.005	-174.2036
212.000000	85.975	-174.3723
214.000000	85.954	-174.4792
218.000000	85.914	-174.6728
220.000000	85.895	-174.7630
224.000000	85.857	-174.9381
227.000000	85.829	-175.0629
230.000000	85.800	-175.1758
233.000000	85.770	-175.2749
236.000000	85.741	-175.3664
240.000000	85.701	-175.4841
243.000000	85.672	-175.5694
247.000000	85.633	-175.6768
250.000000	85.605	-175.7522
254.000000	85.569	-175.8468
258.000000	85.535	-175.9346
262.000000	85.501	-176.0118
265.000000	85.474	-176.0611
269.000000	85.439	-176.1192
272.000000	85.412	-176.1588
276.000000	85.378	-176.2054
280.000000	85.345	-176.2428
285.000000	85.303	-176.2791
290.000000	85.260	-176.3098
295.000000	85.219	-176.3325
300.000000	85.178	-176.3429
304.000000	85.146	-176.3433
307.000000	85.121	-176.3407
311.000000	85.089	-176.3329
315.000000	85.057	-176.3191
320.000000	85.016	-176.2950
325.000000	84.976	-176.2657
330.000000	84.937	-176.2303
335.000000	84.899	-176.1876
340.000000	84.862	-176.1379
345.000000	84.825	-176.0815
350.000000	84.788	-176.0134
355.000000	84.751	-175.9315
360.000000	84.714	-175.8456
365.000000	84.678	-175.7598
370.000000	84.642	-175.6716
375.000000	84.606	-175.5786
382.000000	84.557	-175.4387
387.000000	84.522	-175.3342
395.000000	84.468	-175.1609
400.000000	84.434	-175.0455
406.000000	84.393	-174.9008
412.000000	84.351	-174.7507
418.000000	84.310	-174.5920
425.000000	84.263	-174.3944
431.000000	84.224	-174.2189
437.000000	84.185	-174.0413
444.000000	84.140	-173.8300
450.000000	84.103	-173.6432
455.000000	84.072	-173.4831
462.000000	84.029	-173.2524
468.000000	83.991	-173.0470
475.000000	83.949	-172.7958
482.000000	83.906	-172.5333
487.000000	83.876	-172.3419
494.000000	83.834	-172.0715
500.000000	83.798	-171.8377
508.000000	83.752	-171.5214
515.000000	83.712	-171.2380
522.000000	83.672	-170.9470
530.000000	83.626	-170.6058
538.000000	83.580	-170.2564
545.000000	83.541	-169.9442
552.000000	83.502	-169.6251
560.000000	83.459	-169.2516
570.000000	83.407	-168.7701
580.000000	83.356	-168.2745
590.000000	83.307	-167.7717
600.000000	83.257	-167.2618
608.000000	83.217	-166.8462
615.000000	83.184	-166.4773
622.000000	83.151	-166.1035
630.000000	83.114	-165.6694
640.000000	83.069	-165.1160
650.000000	83.025	-164.5536
660.000000	82.983	-163.9811
670.000000	82.940	-163.3946
680.000000	82.899	-162.7959
690.000000	82.859	-162.1868
700.000000	82.820	-161.5685
710.000000	82.781	-160.9446
720.000000	82.741	-160.3156
730.000000	82.699	-159.6749
740.000000	82.654	-159.0141
750.000000	82.605	-158.3200
762.000000	82.539	-157.4007
775.000000	82.460	-156.1862
788.000000	82.400	-154.6097
800.000000	82.408	-152.8874
812.000000	82.505	-151.2765
825.000000	82.664	-150.1111
838.000000	82.796	-149.5252
850.000000	82.869	-149.1725
862.000000	82.910	-148.7802
875.000000	82.939	-148.2486
885.000000	82.961	-147.7791
900.000000	83.000	-147.0197
912.000000	83.038	-146.3975
925.000000	83.085	-145.7402
938.000000	83.140	-145.1226
950.000000	83.196	-144.6011
962.000000	83.258	-144.1393
975.000000	83.327	-143.7267
988.000000	83.398	-143.4304
1000.000000	83.462	-143.2821
1015.000000	83.529	-143.2946
1030.000000	83.569	-143.5466
1044.000000	83.564	-143.9730
1060.000000	83.480	-144.5473
1075.000000	83.309	-144.8924
1090.000000	83.054	-144.6675
1106.000000	82.742	-143.4506
1120.000000	82.508	-141.5384
1138.000000	82.358	-138.3832
1150.000000	82.368	-136.2300
1172.000000	82.552	-132.8631
1180.000000	82.648	-131.8920
1206.000000	82.976	-129.5782
1220.000000	83.141	-128.7318
1241.000000	83.362	-127.7787
1250.000000	83.446	-127.4476
1265.000000	83.574	-126.9639
1280.000000	83.687	-126.5410
1315.000000	83.907	-125.6801
1320.000000	83.935	-125.5645
1340.000000	84.037	-125.1117
1360.000000	84.128	-124.6668
1380.000000	84.209	-124.2223
1400.000000	84.282	-123.7746
1430.000000	84.381	-123.0907
1450.000000	84.440	-122.6233
1475.000000	84.509	-122.0263
1500.000000	84.572	-121.4153
1525.000000	84.633	-120.7908
1550.000000	84.692	-120.1526
1575.000000	84.749	-119.5010
1600.000000	84.804	-118.8363
1625.000000	84.857	-118.1627
1650.000000	84.910	-117.4819
1675.000000	84.963	-116.7922
1700.000000	85.016	-116.0951
1725.000000	85.070	-115.3959
1750.000000	85.123	-114.6998
1775.000000	85.177	-114.0075
1800.000000	85.231	-113.3163
1825.000000	85.286	-112.6265
1850.000000	85.342	-111.9404
1875.000000	85.398	-111.2599
1900.000000	85.456	-110.5860
1925.000000	85.513	-109.9173
1950.000000	85.572	-109.2510
1975.000000	85.632	-108.5872
2000.000000	85.692	-107.9298
2030.000000	85.766	-107.1549
2060.000000	85.841	-106.3972
2090.000000	85.916	-105.6562
2120.000000	85.992	-104.9324
2140.000000	86.043	-104.4603
2180.000000	86.146	-103.5433
2200.000000	86.199	-103.0993
2240.000000	86.305	-102.2428
2270.000000	86.385	-101.6288
2300.000000	86.465	-101.0392
2330.000000	86.545	-100.4762
2360.000000	86.625	-99.9424
2400.000000	86.728	-99.2761
2430.000000	86.803	-98.8095
2470.000000	86.901	-98.2304
2500.000000	86.971	-97.8281
2540.000000	87.061	-97.3326
2580.000000	87.145	-96.8793
2620.000000	87.223	-96.4669
2650.000000	87.277	-96.1832
2690.000000	87.341	-95.8330
2720.000000	87.385	-95.5873
2760.000000	87.436	-95.2788
2800.000000	87.477	-94.9883
2850.000000	87.517	-94.6404
2900.000000	87.543	-94.2998
2950.000000	87.556	-93.9578
3000.000000	87.556	-93.6029
3040.000000	87.547	-93.3002
3070.000000	87.535	-93.0586
3110.000000	87.513	-92.7138
3150.000000	87.484	-92.3390
3200.000000	87.440	-91.8234
3250.000000	87.388	-91.2538
3300.000000	87.329	-90.6291
3350.000000	87.265	-89.9472
3400.000000	87.196	-89.2050
3450.000000	87.124	-88.3994
3500.000000	87.049	-87.5296
3550.000000	86.974	-86.5979
3600.000000	86.899	-85.6085
3650.000000	86.824	-84.5652
3700.000000	86.752	-83.4709
3750.000000	86.682	-82.3277
3820.000000	86.590	-80.6481
3870.000000	86.528	-79.3963
3950.000000	86.439	-77.3165
4000.000000	86.390	-75.9766
4060.000000	86.339	-74.3335
4120.000000	86.296	-72.6578
4180.000000	86.261	-70.9576
4250.000000	86.232	-68.9531
4310.000000	86.218	-67.2258
4370.000000	86.213	-65.4962
4440.000000	86.219	-63.4799
4500.000000	86.234	-61.7601
4550.000000	86.253	-60.3385
4620.000000	86.291	-58.3742
4680.000000	86.333	-56.7223
4750.000000	86.392	-54.8419
4820.000000	86.463	-53.0206
4870.000000	86.520	-51.7604
4940.000000	86.610	-50.0582
5000.000000	86.694	-48.6627
5080.000000	86.815	-46.9067
5150.000000	86.929	-45.4811
5220.000000	87.049	-44.1708
5300.000000	87.191	-42.8266
5380.000000	87.335	-41.6567
5450.000000	87.461	-40.7855
5520.000000	87.584	-40.0653
5600.000000	87.716	-39.4321
5700.000000	87.862	-38.9263
5800.000000	87.978	-38.7331
5900.000000	88.054	-38.8291
6000.000000	88.078	-39.1642
6080.000000	88.055	-39.5557
6150.000000	88.003	-39.9522
6220.000000	87.919	-40.3663
6300.000000	87.785	-40.8188
6400.000000	87.561	-41.2850
6500.000000	87.280	-41.5659
6600.000000	86.950	-41.5956
6700.000000	86.581	-41.3264
6800.000000	86.184	-40.7304
6900.000000	85.770	-39.7981
7000.000000	85.351	-38.5403
7100.000000	84.937	-36.9907
7200.000000	84.534	-35.2003
7300.000000	84.148	-33.2174
7400.000000	83.780	-31.0719
7500.000000	83.431	-28.7823
7620.000000	83.038	-25.8729
7750.000000	82.650	-22.5732
7880.000000	82.303	-19.1773
8000.000000	82.021	-16.0060
8120.000000	81.777	-12.8421
8250.000000	81.552	-9.4633
8380.000000	81.366	-6.1742
8500.000000	81.226	-3.2528
8620.000000	81.114	-0.4616
8750.000000	81.020	2.4028
8850.000000	80.966	4.4823
9000.000000	80.913	7.3715
9120.000000	80.891	9.4629
9250.000000	80.885	11.4924
9380.000000	80.893	13.2612
9500.000000	80.909	14.6477
9620.000000	80.930	15.7847
9750.000000	80.951	16.7228
9880.000000	80.964	17.3559
10000.000000	80.963	17.6859
10150.000000	80.935	17.7920
10300.000000	80.869	17.5927
10440.000000	80.764	17.1973
10600.000000	80.591	16.6321
10750.000000	80.386	16.0777
10900.000000	80.148	15.5091
11060.000000	79.858	14.8859
11200.000000	79.570	14.3630
11380.000000	79.155	13.8250
11500.000000	78.855	13.6156
11720.000000	78.291	13.6124
11800.000000	78.092	13.7081
12060.000000	77.508	14.0076
12200.000000	77.233	13.9095
12410.000000	76.839	13.1003
12500.000000	76.660	12.4824
12650.000000	76.325	11.1327
12800.000000	75.925	9.4996
13150.000000	74.685	5.5298
13200.000000	74.474	5.0257
13400.000000	73.560	3.3125
13600.000000	72.560	2.1428
13800.000000	71.506	1.4978
14000.000000	70.428	1.2791
14300.000000	68.814	1.4570
14500.000000	67.756	1.7349
14750.000000	66.461	2.0766
15000.000000	65.209	2.1510
15250.000000	64.010	1.6584
15500.000000	62.864	0.3925
15750.000000	61.749	-1.8131
16000.000000	60.646	-5.1688
16250.000000	59.541	-9.8415
16500.000000	58.417	-15.8606
16750.000000	57.271	-23.0996
17000.000000	56.158	-31.4524
17250.000000	55.203	-41.0279
17500.000000	54.582	-52.1850
17750.000000	54.457	-65.4517
18000.000000	54.900	-81.3083
18250.000000	55.867	-100.0706
18500.000000	57.215	-122.0888
18750.000000	58.745	-147.9222
19000.000000	60.246	-178.1488
19250.000000	61.534	147.4276
19500.000000	62.469	111.1338
19750.000000	63.004	78.7112
