* More info about this measurement = https://www.achoreviews.com/solospec
*
* Freq(Hz)	SPL(dB)	Phase(degrees)
20.299999	94.026	-139.1827
20.600000	94.032	-139.5498
20.900000	94.044	-140.3263
21.200001	94.054	-141.1792
21.400000	94.058	-141.7501
21.799999	94.064	-142.8748
22.000000	94.066	-143.4228
22.400000	94.068	-144.4946
22.700001	94.068	-145.2804
23.000000	94.067	-146.0534
23.299999	94.061	-146.8146
23.600000	94.050	-147.5622
24.000000	94.026	-148.5323
24.299999	94.002	-149.2353
24.700001	93.965	-150.1394
25.000000	93.936	-150.7983
25.400000	93.899	-151.6643
25.799999	93.863	-152.5303
26.200001	93.829	-153.4010
26.500000	93.804	-154.0526
26.900000	93.769	-154.9086
27.200001	93.742	-155.5339
27.600000	93.704	-156.3397
28.000000	93.667	-157.1144
28.500000	93.619	-158.0473
29.000000	93.571	-158.9524
29.500000	93.522	-159.8369
30.000000	93.473	-160.7013
30.400000	93.433	-161.3752
30.700001	93.402	-161.8685
31.100000	93.362	-162.5095
31.500000	93.322	-163.1334
32.000000	93.273	-163.8966
32.500000	93.224	-164.6492
33.000000	93.174	-165.3917
33.500000	93.122	-166.1168
34.000000	93.070	-166.8169
34.500000	93.019	-167.4917
35.000000	92.969	-168.1469
35.500000	92.920	-168.7889
36.000000	92.870	-169.4186
36.500000	92.820	-170.0328
37.000000	92.768	-170.6288
37.500000	92.716	-171.2076
38.200001	92.645	-171.9944
38.700001	92.596	-172.5395
39.500000	92.519	-173.3743
40.000000	92.472	-173.8740
40.599998	92.416	-174.4609
41.200001	92.359	-175.0402
41.799999	92.299	-175.6058
42.500000	92.230	-176.2355
43.099998	92.172	-176.7492
43.700001	92.114	-177.2462
44.400002	92.047	-177.8109
45.000000	91.988	-178.2844
45.500000	91.940	-178.6727
46.200001	91.875	-179.2028
46.799999	91.820	-179.6358
47.500000	91.751	179.8900
48.200001	91.675	179.4426
48.700001	91.617	179.1338
49.400002	91.538	178.7084
50.000000	91.479	178.3379
50.799999	91.418	177.8217
51.500000	91.371	177.3676
52.200001	91.323	176.9459
53.000000	91.260	176.5139
53.799999	91.193	176.1065
54.500000	91.134	175.7538
55.200001	91.076	175.4092
56.000000	91.011	175.0359
57.000000	90.931	174.5977
58.000000	90.851	174.1749
59.000000	90.772	173.7723
60.000000	90.693	173.3996
60.799999	90.632	173.1129
61.500000	90.579	172.8651
62.200001	90.528	172.6239
63.000000	90.471	172.3637
64.000000	90.399	172.0630
65.000000	90.326	171.7794
66.000000	90.252	171.5043
67.000000	90.180	171.2383
68.000000	90.110	170.9839
69.000000	90.039	170.7398
70.000000	89.970	170.5053
71.000000	89.902	170.2829
72.000000	89.837	170.0732
73.000000	89.772	169.8741
74.000000	89.708	169.6861
75.000000	89.645	169.5114
76.199997	89.570	169.3195
77.500000	89.492	169.1297
78.800003	89.414	168.9585
80.000000	89.343	168.8154
81.199997	89.273	168.6819
82.500000	89.197	168.5452
83.800003	89.123	168.4148
85.000000	89.056	168.2991
86.199997	88.991	168.1918
87.500000	88.921	168.0918
88.500000	88.869	168.0265
90.000000	88.792	167.9396
91.199997	88.732	167.8764
92.500000	88.668	167.8157
93.800003	88.605	167.7621
95.000000	88.549	167.7146
96.199997	88.496	167.6635
97.500000	88.443	167.6054
98.800003	88.391	167.5614
100.000000	88.342	167.5455
101.500000	88.276	167.5508
103.000000	88.209	167.5644
104.400002	88.149	167.5781
106.000000	88.084	167.5963
107.500000	88.026	167.6145
109.000000	87.970	167.6342
110.599998	87.913	167.6613
112.000000	87.863	167.6943
113.800003	87.800	167.7467
115.000000	87.759	167.7834
117.199997	87.688	167.8532
118.000000	87.663	167.8815
120.599998	87.583	167.9872
122.000000	87.540	168.0488
124.099998	87.478	168.1427
125.000000	87.452	168.1842
126.500000	87.410	168.2568
128.000000	87.368	168.3349
131.500000	87.272	168.5362
132.000000	87.259	168.5663
134.000000	87.207	168.6884
136.000000	87.156	168.8101
138.000000	87.107	168.9308
140.000000	87.059	169.0570
143.000000	86.989	169.2683
145.000000	86.944	169.4190
147.500000	86.888	169.6058
150.000000	86.835	169.7889
152.500000	86.784	169.9763
155.000000	86.734	170.1711
157.500000	86.684	170.3671
160.000000	86.637	170.5637
162.500000	86.591	170.7680
165.000000	86.547	170.9780
167.500000	86.503	171.1866
170.000000	86.460	171.3940
172.500000	86.418	171.6032
175.000000	86.377	171.8154
177.500000	86.338	172.0298
180.000000	86.300	172.2449
182.500000	86.264	172.4589
185.000000	86.228	172.6724
187.500000	86.193	172.8889
190.000000	86.159	173.1113
192.500000	86.125	173.3381
195.000000	86.092	173.5661
197.500000	86.060	173.7934
200.000000	86.029	174.0188
203.000000	85.993	174.2849
206.000000	85.958	174.5466
209.000000	85.925	174.8057
212.000000	85.892	175.0657
214.000000	85.871	175.2415
218.000000	85.829	175.6004
220.000000	85.809	175.7819
224.000000	85.769	176.1439
227.000000	85.741	176.4116
230.000000	85.714	176.6761
233.000000	85.688	176.9397
236.000000	85.662	177.2055
240.000000	85.628	177.5656
243.000000	85.603	177.8380
247.000000	85.571	178.1993
250.000000	85.548	178.4642
254.000000	85.519	178.8058
258.000000	85.492	179.1459
262.000000	85.465	179.4921
265.000000	85.446	179.7532
269.000000	85.421	-179.9011
272.000000	85.403	-179.6446
276.000000	85.379	-179.3043
280.000000	85.356	-178.9625
285.000000	85.328	-178.5347
290.000000	85.301	-178.1122
295.000000	85.276	-177.6920
300.000000	85.251	-177.2729
304.000000	85.233	-176.9389
307.000000	85.219	-176.6888
311.000000	85.202	-176.3560
315.000000	85.185	-176.0250
320.000000	85.165	-175.6149
325.000000	85.145	-175.2085
330.000000	85.126	-174.8035
335.000000	85.108	-174.3991
340.000000	85.090	-173.9938
345.000000	85.073	-173.5865
350.000000	85.058	-173.1831
355.000000	85.043	-172.7892
360.000000	85.029	-172.4009
365.000000	85.014	-172.0120
370.000000	85.000	-171.6218
375.000000	84.987	-171.2338
382.000000	84.970	-170.6977
387.000000	84.958	-170.3180
395.000000	84.941	-169.7116
400.000000	84.930	-169.3305
406.000000	84.919	-168.8719
412.000000	84.907	-168.4153
418.000000	84.897	-167.9628
425.000000	84.886	-167.4404
431.000000	84.878	-166.9957
437.000000	84.869	-166.5526
444.000000	84.858	-166.0370
450.000000	84.849	-165.5942
455.000000	84.842	-165.2234
462.000000	84.833	-164.7044
468.000000	84.826	-164.2622
475.000000	84.819	-163.7510
482.000000	84.813	-163.2449
487.000000	84.808	-162.8858
494.000000	84.803	-162.3834
500.000000	84.798	-161.9524
508.000000	84.793	-161.3782
515.000000	84.790	-160.8755
522.000000	84.787	-160.3712
530.000000	84.784	-159.7947
538.000000	84.781	-159.2209
545.000000	84.778	-158.7213
552.000000	84.777	-158.2232
560.000000	84.776	-157.6553
570.000000	84.776	-156.9475
580.000000	84.778	-156.2387
590.000000	84.781	-155.5287
600.000000	84.785	-154.8186
608.000000	84.789	-154.2494
615.000000	84.792	-153.7511
622.000000	84.797	-153.2541
630.000000	84.803	-152.6894
640.000000	84.811	-151.9888
650.000000	84.823	-151.2919
660.000000	84.836	-150.5955
670.000000	84.852	-149.9019
680.000000	84.871	-149.2170
690.000000	84.892	-148.5454
700.000000	84.917	-147.8916
710.000000	84.946	-147.2641
720.000000	84.981	-146.6803
730.000000	85.021	-146.1707
740.000000	85.062	-145.7804
750.000000	85.095	-145.5628
762.000000	85.094	-145.5579
775.000000	84.991	-145.6060
788.000000	84.775	-144.9308
800.000000	84.590	-143.2329
812.000000	84.537	-141.0509
825.000000	84.608	-139.0011
838.000000	84.718	-137.5131
850.000000	84.802	-136.4350
862.000000	84.868	-135.4136
875.000000	84.938	-134.2691
885.000000	84.998	-133.3863
900.000000	85.100	-132.1277
912.000000	85.185	-131.1930
925.000000	85.278	-130.2410
938.000000	85.371	-129.3362
950.000000	85.457	-128.5328
962.000000	85.543	-127.7544
975.000000	85.637	-126.9368
988.000000	85.731	-126.1469
1000.000000	85.819	-125.4450
1015.000000	85.930	-124.6053
1030.000000	86.042	-123.8058
1044.000000	86.147	-123.0958
1060.000000	86.268	-122.3271
1075.000000	86.380	-121.6486
1090.000000	86.492	-121.0117
1106.000000	86.608	-120.3758
1120.000000	86.709	-119.8538
1138.000000	86.834	-119.2261
1150.000000	86.916	-118.8325
1172.000000	87.061	-118.1585
1180.000000	87.112	-117.9275
1206.000000	87.272	-117.2189
1220.000000	87.354	-116.8601
1241.000000	87.471	-116.3479
1250.000000	87.519	-116.1368
1265.000000	87.596	-115.7942
1280.000000	87.670	-115.4611
1315.000000	87.830	-114.7113
1320.000000	87.852	-114.6063
1340.000000	87.935	-114.1892
1360.000000	88.015	-113.7754
1380.000000	88.090	-113.3645
1400.000000	88.161	-112.9549
1430.000000	88.260	-112.3376
1450.000000	88.322	-111.9206
1475.000000	88.396	-111.3912
1500.000000	88.466	-110.8552
1525.000000	88.533	-110.3142
1550.000000	88.597	-109.7640
1575.000000	88.657	-109.2040
1600.000000	88.715	-108.6362
1625.000000	88.771	-108.0598
1650.000000	88.826	-107.4747
1675.000000	88.879	-106.8823
1700.000000	88.931	-106.2824
1725.000000	88.981	-105.6743
1750.000000	89.031	-105.0590
1775.000000	89.079	-104.4379
1800.000000	89.128	-103.8121
1825.000000	89.176	-103.1825
1850.000000	89.223	-102.5489
1875.000000	89.270	-101.9110
1900.000000	89.317	-101.2690
1925.000000	89.364	-100.6234
1950.000000	89.410	-99.9750
1975.000000	89.457	-99.3247
2000.000000	89.503	-98.6732
2030.000000	89.559	-97.8914
2060.000000	89.615	-97.1090
2090.000000	89.671	-96.3243
2120.000000	89.728	-95.5381
2140.000000	89.766	-95.0146
2180.000000	89.843	-93.9710
2200.000000	89.881	-93.4505
2240.000000	89.959	-92.4111
2270.000000	90.018	-91.6336
2300.000000	90.077	-90.8605
2330.000000	90.137	-90.0940
2360.000000	90.197	-89.3334
2400.000000	90.279	-88.3273
2430.000000	90.340	-87.5792
2470.000000	90.424	-86.5928
2500.000000	90.487	-85.8638
2540.000000	90.572	-84.9072
2580.000000	90.658	-83.9670
2620.000000	90.744	-83.0422
2650.000000	90.809	-82.3601
2690.000000	90.896	-81.4676
2720.000000	90.962	-80.8116
2760.000000	91.050	-79.9551
2800.000000	91.138	-79.1204
2850.000000	91.248	-78.1100
2900.000000	91.357	-77.1379
2950.000000	91.466	-76.2059
3000.000000	91.574	-75.3158
3040.000000	91.659	-74.6346
3070.000000	91.722	-74.1418
3110.000000	91.805	-73.5092
3150.000000	91.887	-72.9055
3200.000000	91.987	-72.1951
3250.000000	92.084	-71.5371
3300.000000	92.176	-70.9336
3350.000000	92.262	-70.3866
3400.000000	92.341	-69.8981
3450.000000	92.410	-69.4665
3500.000000	92.465	-69.0806
3550.000000	92.504	-68.7129
3600.000000	92.526	-68.3147
3650.000000	92.534	-67.8249
3700.000000	92.540	-67.2037
3750.000000	92.559	-66.4769
3820.000000	92.627	-65.4769
3870.000000	92.696	-64.9309
3950.000000	92.805	-64.4847
4000.000000	92.853	-64.4410
4060.000000	92.878	-64.5499
4120.000000	92.864	-64.7634
4180.000000	92.810	-65.0223
4250.000000	92.695	-65.3149
4310.000000	92.551	-65.5011
4370.000000	92.364	-65.5684
4440.000000	92.093	-65.4028
4500.000000	91.819	-64.9532
4550.000000	91.568	-64.2906
4620.000000	91.201	-62.8338
4680.000000	90.896	-61.0672
4750.000000	90.593	-58.4940
4820.000000	90.381	-55.6259
4870.000000	90.289	-53.5888
4940.000000	90.224	-50.9753
5000.000000	90.199	-49.0457
5080.000000	90.166	-46.8803
5150.000000	90.112	-45.2259
5220.000000	90.027	-43.6471
5300.000000	89.898	-41.8060
5380.000000	89.743	-39.8491
5450.000000	89.590	-38.0135
5520.000000	89.421	-36.0343
5600.000000	89.204	-33.4906
5700.000000	88.916	-29.4837
5800.000000	88.752	-24.2459
5900.000000	88.869	-19.0085
6000.000000	89.095	-15.2005
6080.000000	89.222	-12.7868
6150.000000	89.299	-10.7066
6220.000000	89.369	-8.5280
6300.000000	89.464	-5.9265
6400.000000	89.623	-2.6051
6500.000000	89.838	0.6740
6600.000000	90.111	3.8094
6700.000000	90.444	6.7161
6800.000000	90.836	9.3110
6900.000000	91.287	11.5018
7000.000000	91.792	13.1769
7100.000000	92.345	14.1961
7200.000000	92.927	14.3905
7300.000000	93.508	13.5830
7400.000000	94.044	11.6303
7500.000000	94.484	8.4871
7620.000000	94.808	3.3377
7750.000000	94.832	-3.2241
7880.000000	94.493	-9.6461
8000.000000	93.902	-14.4998
8120.000000	93.126	-17.8529
8250.000000	92.186	-19.7909
8380.000000	91.236	-20.3029
8500.000000	90.403	-19.8879
8620.000000	89.633	-18.9296
8750.000000	88.872	-17.5392
8850.000000	88.332	-16.3457
9000.000000	87.579	-14.5013
9120.000000	87.011	-13.0516
9250.000000	86.411	-11.5385
9380.000000	85.811	-10.0734
9500.000000	85.247	-8.7237
9620.000000	84.664	-7.3207
9750.000000	84.009	-5.6675
9880.000000	83.329	-3.8037
10000.000000	82.686	-1.8533
10150.000000	81.870	0.9118
10300.000000	81.052	4.0344
10440.000000	80.288	7.2899
10600.000000	79.422	11.4665
10750.000000	78.630	15.8566
10900.000000	77.878	20.6894
11060.000000	77.145	26.2547
11200.000000	76.580	31.3698
11380.000000	75.979	38.0926
11500.000000	75.664	42.5356
11720.000000	75.264	50.2481
11800.000000	75.170	52.8257
12060.000000	74.995	60.0426
12200.000000	74.939	63.1182
12410.000000	74.823	66.8116
12500.000000	74.746	68.1830
12650.000000	74.575	70.4314
12800.000000	74.371	72.8830
13150.000000	74.028	79.9417
13200.000000	74.020	81.0466
13400.000000	74.131	85.3825
13600.000000	74.478	89.2113
13800.000000	75.053	92.1662
14000.000000	75.842	93.9771
14300.000000	77.388	93.8522
14500.000000	78.589	91.1702
14750.000000	80.090	83.7598
15000.000000	81.279	70.9963
15250.000000	81.816	53.9095
15500.000000	81.560	36.4966
15750.000000	80.819	22.3358
16000.000000	80.123	10.6435
16250.000000	79.704	-0.7562
16500.000000	79.612	-13.1721
16750.000000	79.840	-28.3609
17000.000000	80.133	-48.2514
17250.000000	80.151	-72.9747
17500.000000	79.738	-101.1268
17750.000000	78.889	-131.3079
18000.000000	77.674	-162.8675
18250.000000	76.176	164.1038
18500.000000	74.449	129.3174
18750.000000	72.481	93.0984
19000.000000	70.222	56.8071
19250.000000	67.649	22.4828
19500.000000	64.828	-7.6825
19750.000000	62.008	-31.1476
