* More info about this measurement = https://www.achoreviews.com/solospec
*
* Freq(Hz)	SPL(dB)	Phase(degrees)
20.299999	91.760	-115.8731
20.600000	91.780	-116.3017
20.900000	91.829	-117.2088
21.200001	91.879	-118.2076
21.400000	91.911	-118.8795
21.799999	91.969	-120.2152
22.000000	91.995	-120.8722
22.400000	92.043	-122.1656
22.700001	92.075	-123.1130
23.000000	92.104	-124.0366
23.299999	92.129	-124.9360
23.600000	92.152	-125.8135
24.000000	92.179	-126.9550
24.299999	92.196	-127.7951
24.700001	92.215	-128.8995
25.000000	92.227	-129.7183
25.400000	92.240	-130.7980
25.799999	92.249	-131.8617
26.200001	92.255	-132.9053
26.500000	92.258	-133.6722
26.900000	92.260	-134.6718
27.200001	92.261	-135.4051
27.600000	92.262	-136.3638
28.000000	92.262	-137.3063
28.500000	92.262	-138.4687
29.000000	92.260	-139.6138
29.500000	92.254	-140.7350
30.000000	92.247	-141.8263
30.400000	92.240	-142.6787
30.700001	92.235	-143.3080
31.100000	92.228	-144.1365
31.500000	92.221	-144.9535
32.000000	92.210	-145.9550
32.500000	92.198	-146.9291
33.000000	92.185	-147.8741
33.500000	92.171	-148.7949
34.000000	92.158	-149.6998
34.500000	92.144	-150.5939
35.000000	92.129	-151.4773
35.500000	92.114	-152.3461
36.000000	92.098	-153.1969
36.500000	92.080	-154.0287
37.000000	92.060	-154.8419
37.500000	92.038	-155.6367
38.200001	92.006	-156.7168
38.700001	91.984	-157.4637
39.500000	91.951	-158.6201
40.000000	91.931	-159.3250
40.599998	91.906	-160.1603
41.200001	91.877	-160.9881
41.799999	91.847	-161.8057
42.500000	91.812	-162.7377
43.099998	91.783	-163.5104
43.700001	91.753	-164.2567
44.400002	91.715	-165.1027
45.000000	91.682	-165.8235
45.500000	91.654	-166.4260
46.200001	91.617	-167.2483
46.799999	91.584	-167.9018
47.500000	91.537	-168.6018
48.200001	91.469	-169.2627
48.700001	91.407	-169.7136
49.400002	91.320	-170.3158
50.000000	91.270	-170.8510
50.799999	91.250	-171.6923
51.500000	91.254	-172.5239
52.200001	91.250	-173.3167
53.000000	91.225	-174.0980
53.799999	91.187	-174.8097
54.500000	91.146	-175.4258
55.200001	91.104	-176.0320
56.000000	91.056	-176.6979
57.000000	90.994	-177.4964
58.000000	90.932	-178.2810
59.000000	90.872	-179.0569
60.000000	90.812	-179.8036
60.799999	90.763	179.6274
61.500000	90.720	179.1465
62.200001	90.678	178.6782
63.000000	90.632	178.1547
64.000000	90.574	177.5066
65.000000	90.515	176.8545
66.000000	90.455	176.2073
67.000000	90.394	175.5910
68.000000	90.332	175.0251
69.000000	90.269	174.4960
70.000000	90.207	173.9722
71.000000	90.145	173.4437
72.000000	90.083	172.9252
73.000000	90.023	172.4285
74.000000	89.963	171.9499
75.000000	89.903	171.4823
76.199997	89.830	170.9357
77.500000	89.751	170.3644
78.800003	89.672	169.8097
80.000000	89.600	169.3145
81.199997	89.529	168.8430
82.500000	89.452	168.3570
83.800003	89.376	167.8810
85.000000	89.308	167.4438
86.199997	89.240	167.0152
87.500000	89.166	166.5790
88.500000	89.109	166.2700
90.000000	89.023	165.8277
91.199997	88.955	165.4752
92.500000	88.883	165.1005
93.800003	88.812	164.7420
95.000000	88.746	164.4250
96.199997	88.681	164.1168
97.500000	88.612	163.7889
98.800003	88.543	163.4688
100.000000	88.480	163.1885
101.500000	88.402	162.8661
103.000000	88.324	162.5665
104.400002	88.253	162.2932
106.000000	88.174	161.9826
107.500000	88.100	161.7007
109.000000	88.028	161.4333
110.599998	87.951	161.1613
112.000000	87.885	160.9326
113.800003	87.801	160.6529
115.000000	87.746	160.4756
117.199997	87.645	160.1707
118.000000	87.609	160.0663
120.599998	87.496	159.7489
122.000000	87.435	159.5903
124.099998	87.344	159.3627
125.000000	87.305	159.2680
126.500000	87.241	159.1147
128.000000	87.177	158.9682
131.500000	87.035	158.6554
132.000000	87.015	158.6146
134.000000	86.935	158.4631
136.000000	86.855	158.3271
138.000000	86.776	158.2027
140.000000	86.699	158.0851
143.000000	86.589	157.9044
145.000000	86.527	157.7686
147.500000	86.468	157.5764
150.000000	86.404	157.4304
152.500000	86.297	157.4180
155.000000	86.174	157.4492
157.500000	86.067	157.4525
160.000000	85.973	157.4384
162.500000	85.887	157.4205
165.000000	85.804	157.4038
167.500000	85.724	157.3926
170.000000	85.644	157.3918
172.500000	85.565	157.4036
175.000000	85.487	157.4265
177.500000	85.411	157.4598
180.000000	85.335	157.5018
182.500000	85.261	157.5479
185.000000	85.188	157.5950
187.500000	85.115	157.6461
190.000000	85.044	157.7070
192.500000	84.974	157.7807
195.000000	84.905	157.8653
197.500000	84.837	157.9551
200.000000	84.771	158.0451
203.000000	84.693	158.1513
206.000000	84.617	158.2621
209.000000	84.543	158.3871
212.000000	84.468	158.5252
214.000000	84.419	158.6219
218.000000	84.322	158.8208
220.000000	84.275	158.9202
224.000000	84.183	159.1197
227.000000	84.115	159.2718
230.000000	84.048	159.4248
233.000000	83.983	159.5821
236.000000	83.919	159.7532
240.000000	83.838	160.0173
243.000000	83.782	160.2490
247.000000	83.712	160.5872
250.000000	83.656	160.8103
254.000000	83.572	161.0098
258.000000	83.486	161.1768
262.000000	83.405	161.3849
265.000000	83.348	161.5640
269.000000	83.275	161.8194
272.000000	83.221	162.0198
276.000000	83.151	162.2932
280.000000	83.083	162.5685
285.000000	83.001	162.9183
290.000000	82.919	163.2802
295.000000	82.839	163.6494
300.000000	82.761	164.0178
304.000000	82.700	164.3090
307.000000	82.656	164.5258
311.000000	82.598	164.8148
315.000000	82.541	165.1062
320.000000	82.470	165.4767
325.000000	82.402	165.8537
330.000000	82.336	166.2315
335.000000	82.271	166.6142
340.000000	82.209	167.0132
345.000000	82.151	167.4279
350.000000	82.093	167.8328
355.000000	82.032	168.2048
360.000000	81.968	168.5648
365.000000	81.907	168.9342
370.000000	81.848	169.3104
375.000000	81.790	169.6877
382.000000	81.711	170.2217
387.000000	81.656	170.6125
395.000000	81.573	171.2518
400.000000	81.523	171.6516
406.000000	81.464	172.1259
412.000000	81.404	172.5978
418.000000	81.345	173.0723
425.000000	81.276	173.6284
431.000000	81.219	174.1001
437.000000	81.161	174.5615
444.000000	81.092	175.0875
450.000000	81.037	175.5476
455.000000	80.996	175.9526
462.000000	80.944	176.5363
468.000000	80.899	177.0320
475.000000	80.844	177.6008
482.000000	80.788	178.1622
487.000000	80.748	178.5632
494.000000	80.694	179.1300
500.000000	80.650	179.6193
508.000000	80.591	-179.7335
515.000000	80.540	-179.1725
522.000000	80.489	-178.6080
530.000000	80.431	-177.9481
538.000000	80.371	-177.2648
545.000000	80.319	-176.6579
552.000000	80.271	-176.0710
560.000000	80.222	-175.4355
570.000000	80.163	-174.6476
580.000000	80.104	-173.8386
590.000000	80.046	-173.0112
600.000000	79.989	-172.1764
608.000000	79.943	-171.5072
615.000000	79.903	-170.9186
622.000000	79.863	-170.3222
630.000000	79.819	-169.6275
640.000000	79.766	-168.7452
650.000000	79.714	-167.8710
660.000000	79.662	-167.0294
670.000000	79.612	-166.1999
680.000000	79.563	-165.3530
690.000000	79.516	-164.4855
700.000000	79.467	-163.6060
710.000000	79.414	-162.7072
720.000000	79.359	-161.7600
730.000000	79.304	-160.7360
740.000000	79.256	-159.6292
750.000000	79.224	-158.4727
762.000000	79.214	-157.1242
775.000000	79.229	-155.8483
788.000000	79.237	-154.7691
800.000000	79.227	-153.8163
812.000000	79.208	-152.8156
825.000000	79.186	-151.6676
838.000000	79.167	-150.4789
850.000000	79.154	-149.3672
862.000000	79.148	-148.2531
875.000000	79.147	-147.0426
885.000000	79.149	-146.1095
900.000000	79.158	-144.7166
912.000000	79.171	-143.6167
925.000000	79.189	-142.4438
938.000000	79.211	-141.2918
950.000000	79.237	-140.2453
962.000000	79.268	-139.2129
975.000000	79.306	-138.1134
988.000000	79.346	-137.0401
1000.000000	79.385	-136.0764
1015.000000	79.439	-134.9099
1030.000000	79.495	-133.7864
1044.000000	79.550	-132.7751
1060.000000	79.612	-131.6597
1075.000000	79.669	-130.6502
1090.000000	79.725	-129.6756
1106.000000	79.786	-128.6792
1120.000000	79.839	-127.8446
1138.000000	79.904	-126.8196
1150.000000	79.946	-126.1636
1172.000000	80.021	-125.0067
1180.000000	80.047	-124.5971
1206.000000	80.123	-123.3022
1220.000000	80.160	-122.6273
1241.000000	80.212	-121.6313
1250.000000	80.231	-121.2046
1265.000000	80.260	-120.4872
1280.000000	80.286	-119.7646
1315.000000	80.336	-118.0841
1320.000000	80.342	-117.8440
1340.000000	80.367	-116.8787
1360.000000	80.387	-115.9079
1380.000000	80.403	-114.9279
1400.000000	80.417	-113.9276
1430.000000	80.438	-112.3831
1450.000000	80.453	-111.3232
1475.000000	80.473	-109.9616
1500.000000	80.496	-108.5757
1525.000000	80.521	-107.1776
1550.000000	80.550	-105.7694
1575.000000	80.583	-104.3531
1600.000000	80.621	-102.9389
1625.000000	80.664	-101.5359
1650.000000	80.710	-100.1479
1675.000000	80.759	-98.7833
1700.000000	80.810	-97.4503
1725.000000	80.859	-96.1445
1750.000000	80.907	-94.8558
1775.000000	80.953	-93.5752
1800.000000	80.998	-92.2961
1825.000000	81.040	-91.0139
1850.000000	81.081	-89.7257
1875.000000	81.122	-88.4263
1900.000000	81.163	-87.1141
1925.000000	81.204	-85.7888
1950.000000	81.246	-84.4465
1975.000000	81.289	-83.0829
2000.000000	81.336	-81.7006
2030.000000	81.396	-80.0257
2060.000000	81.462	-78.3354
2090.000000	81.532	-76.6280
2120.000000	81.608	-74.9055
2140.000000	81.662	-73.7516
2180.000000	81.779	-71.4415
2200.000000	81.843	-70.2885
2240.000000	81.981	-67.9865
2270.000000	82.095	-66.2663
2300.000000	82.216	-64.5603
2330.000000	82.347	-62.8761
2360.000000	82.489	-61.2195
2400.000000	82.695	-59.0640
2430.000000	82.861	-57.4982
2470.000000	83.095	-55.4958
2500.000000	83.281	-54.0677
2540.000000	83.539	-52.2792
2580.000000	83.809	-50.6419
2620.000000	84.085	-49.1646
2650.000000	84.294	-48.1649
2690.000000	84.574	-46.9791
2720.000000	84.782	-46.1973
2760.000000	85.057	-45.2940
2800.000000	85.326	-44.5492
2850.000000	85.651	-43.8350
2900.000000	85.959	-43.3465
2950.000000	86.248	-43.0657
3000.000000	86.517	-42.9755
3040.000000	86.716	-43.0290
3070.000000	86.855	-43.1387
3110.000000	87.028	-43.3764
3150.000000	87.183	-43.7180
3200.000000	87.350	-44.2879
3250.000000	87.483	-45.0054
3300.000000	87.577	-45.8490
3350.000000	87.631	-46.7868
3400.000000	87.640	-47.7788
3450.000000	87.601	-48.7827
3500.000000	87.515	-49.7501
3550.000000	87.383	-50.6275
3600.000000	87.207	-51.3645
3650.000000	86.992	-51.9221
3700.000000	86.743	-52.2721
3750.000000	86.466	-52.3922
3820.000000	86.042	-52.1418
3870.000000	85.720	-51.6483
3950.000000	85.189	-50.3109
4000.000000	84.856	-49.1429
4060.000000	84.464	-47.4172
4120.000000	84.089	-45.3576
4180.000000	83.739	-42.9939
4250.000000	83.377	-39.9066
4310.000000	83.118	-37.0484
4370.000000	82.920	-34.0990
4440.000000	82.772	-30.7365
4500.000000	82.714	-28.1298
4550.000000	82.698	-26.2936
4620.000000	82.683	-24.3715
4680.000000	82.631	-23.2997
4750.000000	82.473	-22.4548
4820.000000	82.189	-21.6056
4870.000000	81.916	-20.7570
4940.000000	81.467	-19.0297
5000.000000	81.053	-17.0047
5080.000000	80.504	-13.6128
5150.000000	80.056	-10.1489
5220.000000	79.649	-6.3666
5300.000000	79.239	-1.7934
5380.000000	78.884	2.9396
5450.000000	78.613	7.1567
5520.000000	78.377	11.4113
5600.000000	78.144	16.2873
5700.000000	77.902	22.3646
5800.000000	77.706	28.3975
5900.000000	77.552	34.3658
6000.000000	77.435	40.2736
6080.000000	77.365	44.9643
6150.000000	77.318	49.0337
6220.000000	77.284	53.0619
6300.000000	77.262	57.6138
6400.000000	77.258	63.2292
6500.000000	77.279	68.7684
6600.000000	77.325	74.2319
6700.000000	77.394	79.6108
6800.000000	77.484	84.8960
6900.000000	77.595	90.0852
7000.000000	77.729	95.1819
7100.000000	77.885	100.1810
7200.000000	78.065	105.0700
7300.000000	78.271	109.8416
7400.000000	78.502	114.4846
7500.000000	78.761	118.9786
7620.000000	79.112	124.1229
7750.000000	79.539	129.2863
7880.000000	79.996	133.8992
8000.000000	80.424	137.5932
8120.000000	80.836	140.7373
8250.000000	81.242	143.5776
8380.000000	81.587	145.9334
8500.000000	81.836	147.8029
8620.000000	82.013	149.5339
8750.000000	82.126	151.4633
8850.000000	82.166	153.1250
9000.000000	82.176	156.1028
9120.000000	82.176	158.9941
9250.000000	82.210	162.6378
9380.000000	82.323	166.7150
9500.000000	82.530	170.7035
9620.000000	82.860	174.7105
9750.000000	83.366	178.8117
9880.000000	84.025	-177.6533
10000.000000	84.747	-175.2043
10150.000000	85.744	-173.7046
10300.000000	86.743	-174.4237
10440.000000	87.559	-177.3454
10600.000000	88.222	176.8675
10750.000000	88.499	169.8792
10900.000000	88.417	162.5855
11060.000000	87.983	155.7606
11200.000000	87.402	151.2472
11380.000000	86.564	147.4533
11500.000000	86.053	145.6890
11720.000000	85.326	142.1988
11800.000000	85.102	140.4833
12060.000000	84.241	133.2445
12200.000000	83.595	129.0024
12410.000000	82.361	123.3938
12500.000000	81.752	121.4493
12650.000000	80.659	118.9145
12800.000000	79.500	117.2681
13150.000000	76.692	116.7152
13200.000000	76.292	116.9944
13400.000000	74.727	118.9368
13600.000000	73.261	122.0444
13800.000000	71.948	126.0141
14000.000000	70.836	130.4756
14300.000000	69.587	137.2984
14500.000000	69.024	141.5253
14750.000000	68.607	146.1432
15000.000000	68.532	149.7181
15250.000000	68.853	151.4805
15500.000000	69.537	150.0736
15750.000000	70.389	143.8196
16000.000000	71.094	131.3583
16250.000000	71.334	112.7604
16500.000000	70.904	90.0558
16750.000000	69.731	66.5230
17000.000000	67.902	44.9303
17250.000000	65.645	25.9658
17500.000000	63.239	8.6531
17750.000000	60.959	-8.3688
18000.000000	59.038	-26.1089
18250.000000	57.606	-45.1145
18500.000000	56.688	-65.7153
18750.000000	56.206	-88.2732
19000.000000	56.009	-113.1308
19250.000000	55.933	-140.0856
19500.000000	55.855	-167.5113
19750.000000	55.737	168.5003
