* More info about this measurement = https://www.achoreviews.com/solospec
*
* Freq(Hz)	SPL(dB)	Phase(degrees)
20.299999	92.778	-113.1102
20.600000	92.798	-113.5419
20.900000	92.849	-114.4541
21.200001	92.901	-115.4540
21.400000	92.934	-116.1244
21.799999	92.995	-117.4550
22.000000	93.022	-118.1099
22.400000	93.069	-119.4018
22.700001	93.099	-120.3503
23.000000	93.126	-121.2763
23.299999	93.149	-122.1809
23.600000	93.170	-123.0690
24.000000	93.197	-124.2374
24.299999	93.215	-125.1083
24.700001	93.236	-126.2636
25.000000	93.248	-127.1207
25.400000	93.260	-128.2405
25.799999	93.267	-129.3248
26.200001	93.271	-130.3722
26.500000	93.272	-131.1380
26.900000	93.273	-132.1400
27.200001	93.273	-132.8818
27.600000	93.272	-133.8608
28.000000	93.270	-134.8279
28.500000	93.268	-136.0164
29.000000	93.264	-137.1768
29.500000	93.257	-138.3030
30.000000	93.248	-139.3896
30.400000	93.239	-140.2304
30.700001	93.232	-140.8467
31.100000	93.222	-141.6543
31.500000	93.212	-142.4502
32.000000	93.199	-143.4321
32.500000	93.184	-144.3979
33.000000	93.168	-145.3435
33.500000	93.151	-146.2681
34.000000	93.133	-147.1725
34.500000	93.113	-148.0564
35.000000	93.093	-148.9181
35.500000	93.073	-149.7574
36.000000	93.053	-150.5775
36.500000	93.033	-151.3817
37.000000	93.012	-152.1703
37.500000	92.989	-152.9404
38.200001	92.957	-153.9839
38.700001	92.934	-154.7087
39.500000	92.898	-155.8508
40.000000	92.874	-156.5573
40.599998	92.842	-157.3905
41.200001	92.808	-158.1971
41.799999	92.774	-158.9742
42.500000	92.734	-159.8522
43.099998	92.701	-160.5882
43.700001	92.668	-161.3102
44.400002	92.629	-162.1302
45.000000	92.596	-162.8102
45.500000	92.567	-163.3618
46.200001	92.527	-164.1179
46.799999	92.491	-164.7565
47.500000	92.450	-165.4935
48.200001	92.415	-166.2305
48.700001	92.393	-166.7628
49.400002	92.361	-167.5031
50.000000	92.326	-168.0969
50.799999	92.268	-168.7887
51.500000	92.213	-169.3298
52.200001	92.161	-169.8705
53.000000	92.106	-170.5124
53.799999	92.056	-171.1535
54.500000	92.017	-171.6965
55.200001	91.977	-172.2244
56.000000	91.929	-172.8154
57.000000	91.866	-173.5353
58.000000	91.803	-174.2312
59.000000	91.740	-174.9073
60.000000	91.676	-175.5638
60.799999	91.626	-176.0714
61.500000	91.583	-176.5006
62.200001	91.541	-176.9142
63.000000	91.493	-177.3692
64.000000	91.432	-177.9206
65.000000	91.369	-178.4631
66.000000	91.307	-178.9944
67.000000	91.246	-179.5079
68.000000	91.187	179.9959
69.000000	91.127	179.5167
70.000000	91.067	179.0593
71.000000	91.007	178.6270
72.000000	90.947	178.2155
73.000000	90.888	177.8182
74.000000	90.828	177.4335
75.000000	90.769	177.0610
76.199997	90.697	176.6275
77.500000	90.620	176.1763
78.800003	90.545	175.7449
80.000000	90.476	175.3600
81.199997	90.409	174.9886
82.500000	90.336	174.6068
83.800003	90.263	174.2467
85.000000	90.195	173.9348
86.199997	90.128	173.6423
87.500000	90.059	173.3401
88.500000	90.006	173.1146
90.000000	89.928	172.7861
91.199997	89.866	172.5318
92.500000	89.799	172.2673
93.800003	89.731	172.0153
95.000000	89.668	171.7943
96.199997	89.604	171.5866
97.500000	89.534	171.3734
98.800003	89.468	171.1662
100.000000	89.413	170.9860
101.500000	89.349	170.7904
103.000000	89.285	170.6185
104.400002	89.225	170.4618
106.000000	89.156	170.2841
107.500000	89.093	170.1270
109.000000	89.031	169.9831
110.599998	88.965	169.8426
112.000000	88.907	169.7299
113.800003	88.834	169.5984
115.000000	88.785	169.5191
117.199997	88.698	169.3900
118.000000	88.667	169.3469
120.599998	88.568	169.2189
122.000000	88.516	169.1616
124.099998	88.440	169.0919
125.000000	88.408	169.0663
126.500000	88.355	169.0276
128.000000	88.302	168.9937
131.500000	88.181	168.9392
132.000000	88.164	168.9347
134.000000	88.098	168.9241
136.000000	88.033	168.9240
138.000000	87.969	168.9296
140.000000	87.907	168.9389
143.000000	87.814	168.9725
145.000000	87.754	169.0118
147.500000	87.680	169.0726
150.000000	87.608	169.1427
152.500000	87.537	169.2242
155.000000	87.468	169.3181
157.500000	87.399	169.4233
160.000000	87.332	169.5352
162.500000	87.267	169.6506
165.000000	87.203	169.7708
167.500000	87.141	169.8977
170.000000	87.080	170.0360
172.500000	87.021	170.1864
175.000000	86.963	170.3436
177.500000	86.905	170.5051
180.000000	86.850	170.6721
182.500000	86.795	170.8458
185.000000	86.743	171.0226
187.500000	86.691	171.1990
190.000000	86.640	171.3770
192.500000	86.590	171.5605
195.000000	86.541	171.7517
197.500000	86.493	171.9509
200.000000	86.446	172.1555
203.000000	86.391	172.4032
206.000000	86.338	172.6509
209.000000	86.285	172.8997
212.000000	86.233	173.1516
214.000000	86.200	173.3232
218.000000	86.136	173.6790
220.000000	86.105	173.8604
224.000000	86.043	174.2220
227.000000	85.999	174.4919
230.000000	85.956	174.7640
233.000000	85.914	175.0391
236.000000	85.873	175.3151
240.000000	85.819	175.6840
243.000000	85.779	175.9623
247.000000	85.726	176.3362
250.000000	85.687	176.6201
254.000000	85.640	177.0030
258.000000	85.595	177.3886
262.000000	85.551	177.7783
265.000000	85.519	178.0725
269.000000	85.477	178.4657
272.000000	85.446	178.7611
276.000000	85.406	179.1533
280.000000	85.367	179.5426
285.000000	85.320	-179.9702
290.000000	85.274	-179.4795
295.000000	85.230	-178.9863
300.000000	85.188	-178.4909
304.000000	85.156	-178.0938
307.000000	85.132	-177.7950
311.000000	85.103	-177.3958
315.000000	85.074	-176.9982
320.000000	85.039	-176.5047
325.000000	85.005	-176.0115
330.000000	84.972	-175.5191
335.000000	84.940	-175.0277
340.000000	84.909	-174.5331
345.000000	84.879	-174.0353
350.000000	84.850	-173.5408
355.000000	84.824	-173.0529
360.000000	84.799	-172.5678
365.000000	84.776	-172.0814
370.000000	84.752	-171.5930
375.000000	84.729	-171.1031
382.000000	84.698	-170.4150
387.000000	84.677	-169.9261
395.000000	84.646	-169.1558
400.000000	84.627	-168.6783
406.000000	84.607	-168.1036
412.000000	84.587	-167.5249
418.000000	84.569	-166.9449
425.000000	84.548	-166.2737
431.000000	84.531	-165.7044
437.000000	84.514	-165.1373
444.000000	84.497	-164.4728
450.000000	84.483	-163.8984
455.000000	84.473	-163.4188
462.000000	84.458	-162.7514
468.000000	84.447	-162.1836
475.000000	84.435	-161.5237
482.000000	84.425	-160.8651
487.000000	84.417	-160.3943
494.000000	84.407	-159.7338
500.000000	84.399	-159.1670
508.000000	84.389	-158.4119
515.000000	84.382	-157.7520
522.000000	84.377	-157.0940
530.000000	84.373	-156.3475
538.000000	84.369	-155.6083
545.000000	84.367	-154.9624
552.000000	84.365	-154.3110
560.000000	84.364	-153.5609
570.000000	84.364	-152.6234
580.000000	84.364	-151.6880
590.000000	84.366	-150.7572
600.000000	84.371	-149.8322
608.000000	84.377	-149.0925
615.000000	84.383	-148.4421
622.000000	84.389	-147.7886
630.000000	84.398	-147.0396
640.000000	84.410	-146.1024
650.000000	84.423	-145.1673
660.000000	84.439	-144.2356
670.000000	84.455	-143.3032
680.000000	84.474	-142.3686
690.000000	84.494	-141.4339
700.000000	84.517	-140.5003
710.000000	84.541	-139.5663
720.000000	84.567	-138.6285
730.000000	84.596	-137.6851
740.000000	84.627	-136.7393
750.000000	84.662	-135.7962
762.000000	84.705	-134.6706
775.000000	84.756	-133.4553
788.000000	84.810	-132.2435
800.000000	84.863	-131.1267
812.000000	84.921	-130.0107
825.000000	84.987	-128.8054
838.000000	85.057	-127.6084
850.000000	85.127	-126.5122
862.000000	85.200	-125.4244
875.000000	85.284	-124.2584
885.000000	85.351	-123.3736
900.000000	85.457	-122.0700
912.000000	85.547	-121.0467
925.000000	85.647	-119.9570
938.000000	85.752	-118.8902
950.000000	85.852	-117.9294
962.000000	85.955	-116.9927
975.000000	86.069	-116.0042
988.000000	86.185	-115.0404
1000.000000	86.296	-114.1728
1015.000000	86.439	-113.1254
1030.000000	86.584	-112.1303
1044.000000	86.720	-111.2509
1060.000000	86.877	-110.2957
1075.000000	87.023	-109.4428
1090.000000	87.168	-108.6281
1106.000000	87.321	-107.7966
1120.000000	87.453	-107.0955
1138.000000	87.621	-106.2200
1150.000000	87.732	-105.6469
1172.000000	87.940	-104.6162
1180.000000	88.017	-104.2546
1206.000000	88.271	-103.1823
1220.000000	88.404	-102.6763
1241.000000	88.594	-101.9747
1250.000000	88.672	-101.6846
1265.000000	88.800	-101.2073
1280.000000	88.925	-100.7343
1315.000000	89.208	-99.6449
1320.000000	89.248	-99.4911
1340.000000	89.406	-98.8800
1360.000000	89.563	-98.2757
1380.000000	89.719	-97.6789
1400.000000	89.874	-97.0906
1430.000000	90.106	-96.2283
1450.000000	90.260	-95.6681
1475.000000	90.453	-94.9828
1500.000000	90.647	-94.3166
1525.000000	90.842	-93.6711
1550.000000	91.039	-93.0482
1575.000000	91.236	-92.4526
1600.000000	91.436	-91.8887
1625.000000	91.637	-91.3596
1650.000000	91.839	-90.8670
1675.000000	92.044	-90.4128
1700.000000	92.250	-90.0000
1725.000000	92.458	-89.6322
1750.000000	92.666	-89.3124
1775.000000	92.874	-89.0428
1800.000000	93.082	-88.8259
1825.000000	93.290	-88.6639
1850.000000	93.498	-88.5591
1875.000000	93.704	-88.5134
1900.000000	93.908	-88.5291
1925.000000	94.110	-88.6076
1950.000000	94.308	-88.7491
1975.000000	94.502	-88.9535
2000.000000	94.691	-89.2208
2030.000000	94.910	-89.6238
2060.000000	95.119	-90.1149
2090.000000	95.317	-90.6901
2120.000000	95.503	-91.3441
2140.000000	95.620	-91.8204
2180.000000	95.833	-92.8586
2200.000000	95.929	-93.4151
2240.000000	96.099	-94.5882
2270.000000	96.207	-95.5080
2300.000000	96.297	-96.4486
2330.000000	96.369	-97.3974
2360.000000	96.424	-98.3423
2400.000000	96.470	-99.5757
2430.000000	96.486	-100.4663
2470.000000	96.484	-101.5891
2500.000000	96.466	-102.3720
2540.000000	96.423	-103.3244
2580.000000	96.361	-104.1603
2620.000000	96.283	-104.8709
2650.000000	96.217	-105.3188
2690.000000	96.119	-105.8024
2720.000000	96.040	-106.0809
2760.000000	95.931	-106.3427
2800.000000	95.818	-106.4828
2850.000000	95.676	-106.4951
2900.000000	95.536	-106.3415
2950.000000	95.401	-106.0385
3000.000000	95.273	-105.6020
3040.000000	95.178	-105.1680
3070.000000	95.111	-104.7984
3110.000000	95.028	-104.2533
3150.000000	94.953	-103.6555
3200.000000	94.871	-102.8470
3250.000000	94.803	-101.9853
3300.000000	94.750	-101.0855
3350.000000	94.712	-100.1627
3400.000000	94.690	-99.2311
3450.000000	94.683	-98.3049
3500.000000	94.691	-97.3997
3550.000000	94.715	-96.5318
3600.000000	94.754	-95.7171
3650.000000	94.807	-94.9724
3700.000000	94.874	-94.3147
3750.000000	94.953	-93.7624
3820.000000	95.081	-93.2019
3870.000000	95.182	-92.9795
3950.000000	95.350	-92.9820
4000.000000	95.454	-93.2317
4060.000000	95.569	-93.8022
4120.000000	95.665	-94.6778
4180.000000	95.731	-95.8538
4250.000000	95.757	-97.5710
4310.000000	95.724	-99.2835
4370.000000	95.631	-101.1452
4440.000000	95.442	-103.3915
4500.000000	95.209	-105.2743
4550.000000	94.966	-106.7436
4620.000000	94.556	-108.5540
4680.000000	94.150	-109.8075
4750.000000	93.623	-110.8604
4820.000000	93.056	-111.4398
4870.000000	92.634	-111.5610
4940.000000	92.030	-111.3354
5000.000000	91.509	-110.7975
5080.000000	90.818	-109.6326
5150.000000	90.227	-108.2395
5220.000000	89.653	-106.5422
5300.000000	89.023	-104.2836
5380.000000	88.424	-101.7416
5450.000000	87.927	-99.3270
5520.000000	87.455	-96.7660
5600.000000	86.944	-93.6913
5700.000000	86.346	-89.6652
5800.000000	85.790	-85.4626
5900.000000	85.273	-81.0940
6000.000000	84.798	-76.5795
6080.000000	84.452	-72.9120
6150.000000	84.170	-69.7042
6220.000000	83.901	-66.4986
6300.000000	83.603	-62.7922
6400.000000	83.250	-58.0200
6500.000000	82.929	-53.0795
6600.000000	82.652	-48.0185
6700.000000	82.421	-42.8976
6800.000000	82.237	-37.7628
6900.000000	82.098	-32.6414
7000.000000	82.003	-27.5528
7100.000000	81.952	-22.5210
7200.000000	81.946	-17.5739
7300.000000	81.982	-12.7313
7400.000000	82.059	-8.0028
7500.000000	82.177	-3.3989
7620.000000	82.375	1.9343
7750.000000	82.662	7.4266
7880.000000	83.027	12.5520
8000.000000	83.436	16.8787
8120.000000	83.913	20.7211
8250.000000	84.506	24.1938
8380.000000	85.161	26.7492
8500.000000	85.797	28.0852
8620.000000	86.424	28.2492
8750.000000	87.031	26.9613
8850.000000	87.403	24.9368
9000.000000	87.730	20.5090
9120.000000	87.749	16.2730
9250.000000	87.512	11.7119
9380.000000	87.028	7.8645
9500.000000	86.407	5.3678
9620.000000	85.671	4.0511
9750.000000	84.805	3.9359
9880.000000	83.920	5.0368
10000.000000	83.123	6.9616
10150.000000	82.188	10.3641
10300.000000	81.341	14.6656
10440.000000	80.642	19.3666
10600.000000	79.959	25.4850
10750.000000	79.453	31.9452
10900.000000	79.124	39.1345
11060.000000	79.072	47.5449
11200.000000	79.399	55.2443
11380.000000	80.435	64.5841
11500.000000	81.451	69.5550
11720.000000	83.568	73.8134
11800.000000	84.308	73.4721
12060.000000	86.270	65.7807
12200.000000	86.974	58.3482
12410.000000	87.513	44.4911
12500.000000	87.543	37.9931
12650.000000	87.315	27.1008
12800.000000	86.750	16.9227
13150.000000	84.395	-0.3984
13200.000000	83.980	-2.0156
13400.000000	82.239	-6.5921
13600.000000	80.497	-8.7717
13800.000000	78.873	-9.3796
14000.000000	77.433	-9.0759
14300.000000	75.666	-7.9341
14500.000000	74.750	-7.1996
14750.000000	73.886	-6.7476
15000.000000	73.321	-7.2022
15250.000000	73.035	-8.9813
15500.000000	73.007	-12.5710
15750.000000	73.185	-18.5634
16000.000000	73.468	-27.5866
16250.000000	73.705	-40.0372
16500.000000	73.726	-55.6878
16750.000000	73.412	-73.5183
17000.000000	72.745	-92.1932
17250.000000	71.791	-110.8313
17500.000000	70.642	-129.1706
17750.000000	69.376	-147.2741
18000.000000	68.061	-165.4550
18250.000000	66.767	175.7238
18500.000000	65.556	155.5367
18750.000000	64.489	132.9797
19000.000000	63.578	106.8290
19250.000000	62.735	76.5786
19500.000000	61.822	43.9770
19750.000000	60.826	14.3062
