* More info about this measurement = https://www.achoreviews.com/solospec
*
* Freq(Hz)	SPL(dB)	Phase(degrees)
20.000000	90.419	-121.7184
20.299999	90.491	-122.1804
20.600000	90.566	-122.6796
20.900000	90.636	-123.2612
21.200001	90.690	-123.9299
21.400000	90.713	-124.3966
21.799999	90.733	-125.3111
22.000000	90.733	-125.7286
22.400000	90.725	-126.4538
22.700001	90.723	-126.9300
23.000000	90.729	-127.3996
23.299999	90.742	-127.9014
23.600000	90.757	-128.4448
24.000000	90.776	-129.2143
24.299999	90.789	-129.7916
24.700001	90.810	-130.5309
25.000000	90.832	-131.0668
25.400000	90.874	-131.7903
25.799999	90.923	-132.5661
26.200001	90.969	-133.4003
26.500000	90.996	-134.0376
26.900000	91.018	-134.8492
27.200001	91.027	-135.3924
27.600000	91.035	-136.0048
28.000000	91.046	-136.5078
28.500000	91.071	-137.0724
29.000000	91.101	-137.6699
29.500000	91.121	-138.3189
30.000000	91.127	-138.9595
30.400000	91.127	-139.4409
30.700001	91.128	-139.7969
31.100000	91.131	-140.3014
31.500000	91.130	-140.8600
32.000000	91.114	-141.5968
32.500000	91.081	-142.2624
33.000000	91.047	-142.7691
33.500000	91.033	-143.1548
34.000000	91.046	-143.5432
34.500000	91.075	-144.0271
35.000000	91.104	-144.6082
35.500000	91.125	-145.2324
36.000000	91.137	-145.8486
36.500000	91.143	-146.4294
37.000000	91.146	-146.9621
37.500000	91.149	-147.4507
38.200001	91.157	-148.1116
38.700001	91.164	-148.6034
39.500000	91.163	-149.3889
40.000000	91.160	-149.8293
40.599998	91.163	-150.3241
41.200001	91.173	-150.8609
41.799999	91.176	-151.4378
42.500000	91.171	-152.0372
43.099998	91.180	-152.4777
43.700001	91.206	-152.9879
44.400002	91.235	-153.7258
45.000000	91.255	-154.3730
45.500000	91.282	-154.9183
46.200001	91.337	-155.8763
46.799999	91.364	-156.9375
47.500000	91.346	-158.1613
48.200001	91.303	-159.0985
48.700001	91.274	-159.6228
49.400002	91.227	-160.2091
50.000000	91.173	-160.4445
50.799999	91.123	-160.2419
51.500000	91.136	-159.8382
52.200001	91.186	-159.5553
53.000000	91.244	-159.4920
53.799999	91.277	-159.6407
54.500000	91.281	-159.8835
55.200001	91.266	-160.1849
56.000000	91.237	-160.5783
57.000000	91.202	-161.1657
58.000000	91.179	-161.8765
59.000000	91.166	-162.6469
60.000000	91.168	-163.3810
60.799999	91.181	-163.9428
61.500000	91.192	-164.4197
62.200001	91.197	-164.8491
63.000000	91.198	-165.2433
64.000000	91.201	-165.6294
65.000000	91.206	-165.9915
66.000000	91.211	-166.3841
67.000000	91.210	-166.8360
68.000000	91.200	-167.2718
69.000000	91.195	-167.6460
70.000000	91.200	-168.0579
71.000000	91.199	-168.5068
72.000000	91.194	-168.9364
73.000000	91.185	-169.3867
74.000000	91.166	-169.8563
75.000000	91.142	-170.3096
76.199997	91.113	-170.8592
77.500000	91.082	-171.4660
78.800003	91.057	-172.0092
80.000000	91.047	-172.4324
81.199997	91.050	-172.8222
82.500000	91.054	-173.2350
83.800003	91.048	-173.6256
85.000000	91.034	-173.9830
86.199997	91.013	-174.3669
87.500000	90.988	-174.8285
88.500000	90.970	-175.2131
90.000000	90.951	-175.8014
91.199997	90.942	-176.2387
92.500000	90.933	-176.6500
93.800003	90.917	-177.0001
95.000000	90.886	-177.2756
96.199997	90.839	-177.4886
97.500000	90.789	-177.6521
98.800003	90.761	-177.8588
100.000000	90.759	-178.2077
101.500000	90.769	-178.8353
103.000000	90.778	-179.4960
104.400002	90.785	179.9534
106.000000	90.781	179.4140
107.500000	90.766	178.9694
109.000000	90.743	178.5396
110.599998	90.715	178.0900
112.000000	90.695	177.7125
113.800003	90.671	177.2566
115.000000	90.654	176.9719
117.199997	90.614	176.4742
118.000000	90.599	176.2955
120.599998	90.563	175.6807
122.000000	90.551	175.3491
124.099998	90.540	174.9184
125.000000	90.537	174.7456
126.500000	90.527	174.4374
128.000000	90.505	174.1027
131.500000	90.431	173.3558
132.000000	90.422	173.2538
134.000000	90.394	172.8327
136.000000	90.368	172.3768
138.000000	90.334	171.9217
140.000000	90.294	171.5335
143.000000	90.247	171.0689
145.000000	90.223	170.7523
147.500000	90.189	170.3054
150.000000	90.147	169.8602
152.500000	90.109	169.4490
155.000000	90.073	169.0241
157.500000	90.023	168.5917
160.000000	89.967	168.1987
162.500000	89.926	167.8127
165.000000	89.899	167.3902
167.500000	89.871	166.9819
170.000000	89.830	166.6386
172.500000	89.773	166.3448
175.000000	89.711	166.0527
177.500000	89.657	165.7532
180.000000	89.618	165.4608
182.500000	89.586	165.1608
185.000000	89.550	164.8359
187.500000	89.508	164.4958
190.000000	89.466	164.1632
192.500000	89.425	163.8616
195.000000	89.384	163.6017
197.500000	89.342	163.3625
200.000000	89.297	163.1174
203.000000	89.237	162.8201
206.000000	89.178	162.5428
209.000000	89.124	162.2737
212.000000	89.076	161.9997
214.000000	89.044	161.8183
218.000000	88.981	161.4702
220.000000	88.946	161.2988
224.000000	88.871	160.9556
227.000000	88.811	160.7160
230.000000	88.752	160.4882
233.000000	88.695	160.2585
236.000000	88.641	160.0308
240.000000	88.570	159.7322
243.000000	88.520	159.4938
247.000000	88.451	159.1676
250.000000	88.397	158.9575
254.000000	88.326	158.7473
258.000000	88.264	158.5771
262.000000	88.211	158.4022
265.000000	88.172	158.2643
269.000000	88.113	158.0837
272.000000	88.059	157.9433
276.000000	87.979	157.7431
280.000000	87.899	157.5764
285.000000	87.801	157.5474
290.000000	87.689	157.8450
295.000000	87.550	158.5747
300.000000	87.429	158.9537
304.000000	87.397	158.3595
307.000000	87.402	157.6547
311.000000	87.409	156.8727
315.000000	87.384	156.4454
320.000000	87.315	156.2441
325.000000	87.241	156.1732
330.000000	87.177	156.1556
335.000000	87.108	156.1167
340.000000	87.031	156.0092
345.000000	86.951	155.8718
350.000000	86.874	155.7388
355.000000	86.800	155.6225
360.000000	86.728	155.5385
365.000000	86.657	155.4772
370.000000	86.587	155.4196
375.000000	86.524	155.3698
382.000000	86.444	155.3387
387.000000	86.391	155.3365
395.000000	86.306	155.3365
400.000000	86.247	155.3359
406.000000	86.166	155.3371
412.000000	86.076	155.3284
418.000000	85.990	155.3320
425.000000	85.907	155.3561
431.000000	85.847	155.3707
437.000000	85.788	155.3865
444.000000	85.719	155.4375
450.000000	85.660	155.5211
455.000000	85.610	155.6083
462.000000	85.537	155.7289
468.000000	85.475	155.8116
475.000000	85.409	155.8865
482.000000	85.346	155.9541
487.000000	85.302	155.9987
494.000000	85.241	156.0518
500.000000	85.189	156.0953
508.000000	85.117	156.1656
515.000000	85.054	156.2453
522.000000	84.992	156.3691
530.000000	84.922	156.5742
538.000000	84.855	156.7963
545.000000	84.800	156.9987
552.000000	84.750	157.2103
560.000000	84.694	157.4202
570.000000	84.624	157.6124
580.000000	84.557	157.8030
590.000000	84.490	158.0405
600.000000	84.422	158.2996
608.000000	84.370	158.4992
615.000000	84.326	158.6682
622.000000	84.283	158.8375
630.000000	84.239	159.0454
640.000000	84.186	159.3428
650.000000	84.135	159.6573
660.000000	84.087	159.9541
670.000000	84.042	160.2428
680.000000	84.001	160.5406
690.000000	83.963	160.8431
700.000000	83.928	161.1575
710.000000	83.895	161.4802
720.000000	83.862	161.8048
730.000000	83.832	162.1307
740.000000	83.805	162.4517
750.000000	83.782	162.7758
762.000000	83.759	163.1897
775.000000	83.741	163.6484
788.000000	83.728	164.0951
800.000000	83.718	164.5018
812.000000	83.710	164.9164
825.000000	83.708	165.3528
838.000000	83.718	165.7624
850.000000	83.739	166.1461
862.000000	83.767	166.5575
875.000000	83.798	167.0110
885.000000	83.822	167.3366
900.000000	83.862	167.7581
912.000000	83.899	168.0516
925.000000	83.943	168.3440
938.000000	83.992	168.5994
950.000000	84.040	168.8058
962.000000	84.095	168.9995
975.000000	84.159	169.1906
988.000000	84.226	169.3403
1000.000000	84.288	169.4329
1015.000000	84.364	169.5030
1030.000000	84.438	169.5429
1044.000000	84.505	169.5458
1060.000000	84.583	169.4976
1075.000000	84.654	169.4181
1090.000000	84.721	169.3257
1106.000000	84.790	169.2103
1120.000000	84.847	169.0892
1138.000000	84.917	168.9209
1150.000000	84.961	168.8120
1172.000000	85.032	168.6334
1180.000000	85.057	168.5736
1206.000000	85.137	168.4095
1220.000000	85.184	168.3453
1241.000000	85.261	168.2745
1250.000000	85.295	168.2544
1265.000000	85.355	168.2262
1280.000000	85.419	168.1929
1315.000000	85.589	168.0667
1320.000000	85.616	168.0415
1340.000000	85.726	167.9181
1360.000000	85.839	167.7549
1380.000000	85.954	167.5433
1400.000000	86.069	167.2820
1430.000000	86.243	166.8230
1450.000000	86.359	166.4839
1475.000000	86.502	166.0416
1500.000000	86.644	165.5887
1525.000000	86.787	165.1146
1550.000000	86.932	164.6097
1575.000000	87.077	164.0906
1600.000000	87.226	163.5765
1625.000000	87.376	163.0602
1650.000000	87.528	162.5231
1675.000000	87.683	161.9552
1700.000000	87.843	161.3682
1725.000000	88.005	160.7773
1750.000000	88.169	160.1844
1775.000000	88.336	159.5739
1800.000000	88.506	158.9326
1825.000000	88.681	158.2676
1850.000000	88.862	157.5819
1875.000000	89.049	156.8682
1900.000000	89.239	156.1263
1925.000000	89.431	155.3603
1950.000000	89.626	154.5685
1975.000000	89.824	153.7457
2000.000000	90.026	152.8854
2030.000000	90.275	151.7983
2060.000000	90.532	150.6588
2090.000000	90.797	149.4713
2120.000000	91.069	148.2308
2140.000000	91.255	147.3725
2180.000000	91.635	145.5701
2200.000000	91.828	144.6217
2240.000000	92.220	142.6276
2270.000000	92.521	141.0489
2300.000000	92.827	139.3979
2330.000000	93.136	137.6708
2360.000000	93.449	135.8601
2400.000000	93.871	133.2988
2430.000000	94.189	131.2657
2470.000000	94.614	128.4048
2500.000000	94.934	126.1369
2540.000000	95.359	122.9401
2580.000000	95.780	119.5535
2620.000000	96.195	115.9863
2650.000000	96.499	113.1913
2690.000000	96.894	109.3015
2720.000000	97.179	106.2585
2760.000000	97.543	102.0347
2800.000000	97.883	97.6342
2850.000000	98.272	91.9262
2900.000000	98.617	86.0432
2950.000000	98.917	80.0269
3000.000000	99.170	73.9244
3040.000000	99.339	69.0240
3070.000000	99.447	65.3620
3110.000000	99.569	60.5194
3150.000000	99.667	55.7374
3200.000000	99.763	49.8608
3250.000000	99.835	44.1150
3300.000000	99.891	38.5086
3350.000000	99.939	33.0310
3400.000000	99.984	27.6666
3450.000000	100.032	22.3993
3500.000000	100.084	17.2065
3550.000000	100.145	12.0599
3600.000000	100.217	6.9227
3650.000000	100.302	1.7555
3700.000000	100.399	-3.4804
3750.000000	100.508	-8.8226
3820.000000	100.672	-16.5591
3870.000000	100.792	-22.3268
3950.000000	100.970	-32.0673
4000.000000	101.060	-38.5057
4060.000000	101.130	-46.5942
4120.000000	101.142	-55.0480
4180.000000	101.080	-63.7949
4250.000000	100.897	-74.2122
4310.000000	100.636	-83.1500
4370.000000	100.279	-91.9216
4440.000000	99.751	-101.7429
4500.000000	99.215	-109.6868
4550.000000	98.722	-115.9279
4620.000000	97.979	-124.0573
4680.000000	97.311	-130.4607
4750.000000	96.516	-137.3071
4820.000000	95.718	-143.5370
4870.000000	95.156	-147.6465
4940.000000	94.385	-152.9823
5000.000000	93.744	-157.2193
5080.000000	92.925	-162.4562
5150.000000	92.243	-166.7042
5220.000000	91.594	-170.6828
5300.000000	90.888	-174.9340
5380.000000	90.218	-178.8591
5450.000000	89.661	178.0371
5520.000000	89.149	175.2769
5600.000000	88.661	172.3359
5700.000000	88.197	168.2223
5800.000000	87.758	163.5381
5900.000000	87.292	158.9789
6000.000000	86.844	154.7548
6080.000000	86.520	151.5388
6150.000000	86.265	148.7935
6220.000000	86.037	146.0869
6300.000000	85.806	143.0255
6400.000000	85.559	139.2362
6500.000000	85.360	135.4731
6600.000000	85.211	131.7216
6700.000000	85.113	127.9579
6800.000000	85.058	124.1463
6900.000000	85.047	120.2757
7000.000000	85.087	116.3720
7100.000000	85.179	112.4149
7200.000000	85.322	108.3431
7300.000000	85.516	104.1249
7400.000000	85.763	99.7738
7500.000000	86.062	95.3120
7620.000000	86.491	89.7615
7750.000000	87.049	83.3869
7880.000000	87.712	76.5454
8000.000000	88.417	69.7162
8120.000000	89.212	62.2501
8250.000000	90.166	53.2645
8380.000000	91.191	43.1202
8500.000000	92.157	32.4581
8620.000000	93.078	20.3106
8750.000000	93.942	5.3725
8850.000000	94.458	-7.2469
9000.000000	94.922	-27.3567
9120.000000	95.010	-43.6716
9250.000000	94.851	-60.7119
9380.000000	94.495	-76.5258
9500.000000	94.072	-89.8486
9620.000000	93.629	-102.0116
9750.000000	93.198	-114.1225
9880.000000	92.870	-125.4685
10000.000000	92.692	-135.5764
10150.000000	92.661	-148.1589
10300.000000	92.844	-161.2278
10440.000000	93.182	-174.4219
10600.000000	93.685	168.6274
10750.000000	94.145	150.3701
10900.000000	94.443	129.6682
11060.000000	94.424	105.5071
11200.000000	94.042	83.7743
11380.000000	93.041	57.0503
11500.000000	92.108	40.8359
11720.000000	90.058	15.0320
11800.000000	89.261	6.7922
12060.000000	86.718	-16.9156
12200.000000	85.458	-28.3236
12410.000000	83.773	-44.3690
12500.000000	83.127	-50.9816
12650.000000	82.146	-61.7682
12800.000000	81.278	-72.3706
13150.000000	79.696	-97.1155
13200.000000	79.519	-100.6976
13400.000000	78.907	-115.1179
13600.000000	78.423	-129.7407
13800.000000	78.063	-144.7904
14000.000000	77.837	-160.4591
14300.000000	77.723	174.2552
14500.000000	77.741	155.9166
14750.000000	77.793	131.2290
15000.000000	77.784	104.5182
15250.000000	77.600	76.0684
15500.000000	77.185	46.7183
15750.000000	76.539	17.3578
16000.000000	75.692	-11.3660
16250.000000	74.709	-39.1355
16500.000000	73.696	-66.3672
16750.000000	72.782	-95.0872
17000.000000	72.086	-131.2921
17250.000000	71.610	172.2761
17500.000000	71.293	80.6890
17750.000000	71.133	-40.0106
18000.000000	71.170	-151.9089
18250.000000	71.422	129.0547
18500.000000	71.872	74.6865
18750.000000	72.446	29.9636
19000.000000	72.989	-14.1909
19250.000000	73.349	-60.9097
19500.000000	73.439	-108.3579
19750.000000	73.271	-149.6885
