* More info about this measurement = https://www.achoreviews.com/solospec
*
* Freq(Hz)	SPL(dB)	Phase(degrees)
20.000000	89.102	-89.4016
20.299999	89.211	-90.5899
20.600000	89.314	-91.7460
20.900000	89.409	-92.8805
21.200001	89.501	-94.0091
21.400000	89.558	-94.7645
21.799999	89.661	-96.2782
22.000000	89.707	-97.0299
22.400000	89.785	-98.4982
22.700001	89.834	-99.5492
23.000000	89.881	-100.5499
23.299999	89.928	-101.5129
23.600000	89.976	-102.4579
24.000000	90.041	-103.7193
24.299999	90.088	-104.6752
24.700001	90.145	-105.9475
25.000000	90.185	-106.8806
25.400000	90.238	-108.0841
25.799999	90.295	-109.2646
26.200001	90.357	-110.4731
26.500000	90.403	-111.4186
26.900000	90.454	-112.7218
27.200001	90.482	-113.6988
27.600000	90.506	-114.9459
28.000000	90.520	-116.0840
28.500000	90.540	-117.3521
29.000000	90.571	-118.5240
29.500000	90.612	-119.6900
30.000000	90.651	-120.8991
30.400000	90.673	-121.8805
30.700001	90.684	-122.5973
31.100000	90.693	-123.4928
31.500000	90.706	-124.3258
32.000000	90.739	-125.3927
32.500000	90.770	-126.6502
33.000000	90.759	-128.0417
33.500000	90.691	-129.2046
34.000000	90.623	-129.8008
34.500000	90.645	-130.0580
35.000000	90.768	-130.6597
35.500000	90.895	-132.0173
36.000000	90.932	-133.7646
36.500000	90.878	-135.2271
37.000000	90.823	-136.1278
37.500000	90.824	-136.8237
38.200001	90.860	-138.1461
38.700001	90.848	-139.1476
39.500000	90.835	-140.2541
40.000000	90.871	-140.9823
40.599998	90.907	-142.1918
41.200001	90.886	-143.4051
41.799999	90.854	-144.3283
42.500000	90.849	-145.2853
43.099998	90.855	-146.1643
43.700001	90.865	-147.0463
44.400002	90.873	-148.1644
45.000000	90.849	-149.0531
45.500000	90.832	-149.5247
46.200001	90.875	-150.1508
46.799999	90.905	-151.1832
47.500000	90.807	-152.1282
48.200001	90.769	-151.8233
48.700001	90.900	-151.8018
49.400002	91.092	-153.5681
50.000000	91.019	-155.7026
50.799999	90.750	-156.8652
51.500000	90.674	-157.0363
52.200001	90.658	-157.8794
53.000000	90.580	-158.7945
53.799999	90.578	-159.5438
54.500000	90.571	-160.6724
55.200001	90.499	-161.5738
56.000000	90.458	-162.0445
57.000000	90.486	-162.8561
58.000000	90.489	-164.0450
59.000000	90.405	-165.2637
60.000000	90.324	-165.9680
60.799999	90.299	-166.8035
61.500000	90.244	-167.6554
62.200001	90.191	-168.3322
63.000000	90.160	-169.0548
64.000000	90.160	-169.9109
65.000000	90.191	-170.9123
66.000000	90.182	-171.8167
67.000000	90.146	-172.2707
68.000000	90.188	-172.0481
69.000000	90.328	-173.3675
70.000000	90.024	-175.0334
71.000000	89.846	-173.4777
72.000000	89.986	-174.3597
73.000000	89.772	-175.5500
74.000000	89.733	-175.7031
75.000000	89.648	-177.0379
76.199997	89.532	-177.3294
77.500000	89.539	-178.2441
78.800003	89.473	-179.1695
80.000000	89.426	-179.5028
81.199997	89.400	179.6077
82.500000	89.314	179.2223
83.800003	89.263	178.2976
85.000000	89.173	177.9689
86.199997	89.129	177.3841
87.500000	89.051	176.8937
88.500000	89.005	176.5880
90.000000	88.969	175.6961
91.199997	88.826	175.1764
92.500000	88.815	175.1162
93.800003	88.763	174.3613
95.000000	88.731	174.1271
96.199997	88.700	173.6732
97.500000	88.667	173.0692
98.800003	88.563	172.8300
100.000000	88.574	172.1142
101.500000	88.352	171.5950
103.000000	88.307	171.3401
104.400002	88.267	171.2099
106.000000	88.204	170.7773
107.500000	88.208	170.3522
109.000000	88.144	170.0811
110.599998	88.086	169.4304
112.000000	88.016	169.0638
113.800003	87.859	168.9709
115.000000	87.905	168.7427
117.199997	87.817	168.1447
118.000000	87.768	167.6686
120.599998	87.633	167.4599
122.000000	87.595	167.6715
124.099998	87.471	166.6078
125.000000	87.431	166.8530
126.500000	87.411	166.3197
128.000000	87.346	166.5991
131.500000	87.305	166.0845
132.000000	87.257	165.8751
134.000000	87.220	165.6552
136.000000	87.001	165.3347
138.000000	87.011	165.2112
140.000000	87.004	164.6987
143.000000	86.839	164.5393
145.000000	86.727	164.0509
147.500000	86.760	164.1740
150.000000	86.676	164.1734
152.500000	86.607	164.2373
155.000000	86.454	163.4681
157.500000	86.388	163.8479
160.000000	86.330	163.2612
162.500000	86.296	163.2219
165.000000	86.172	163.0102
167.500000	86.147	163.2365
170.000000	86.025	162.6168
172.500000	85.958	162.5338
175.000000	85.913	162.3683
177.500000	85.822	162.4799
180.000000	85.761	162.3539
182.500000	85.714	162.3135
185.000000	85.665	162.6312
187.500000	85.550	161.7830
190.000000	85.557	162.1012
192.500000	85.494	162.1403
195.000000	85.430	162.3761
197.500000	85.380	162.2389
200.000000	85.316	162.1298
203.000000	85.272	162.5962
206.000000	85.152	162.4034
209.000000	85.137	162.5748
212.000000	85.029	162.3935
214.000000	84.998	163.0003
218.000000	84.941	162.6042
220.000000	84.890	162.6730
224.000000	84.822	162.4487
227.000000	84.758	162.5567
230.000000	84.710	162.8012
233.000000	84.686	162.5482
236.000000	84.613	163.0693
240.000000	84.553	162.5901
243.000000	84.401	163.1829
247.000000	84.448	163.1115
250.000000	84.306	163.3372
254.000000	84.250	163.3885
258.000000	84.136	163.4763
262.000000	84.164	163.7958
265.000000	84.093	163.6811
269.000000	84.029	163.8577
272.000000	84.025	163.7408
276.000000	83.998	164.0316
280.000000	83.927	164.4724
285.000000	83.834	164.7259
290.000000	83.880	164.1193
295.000000	83.719	164.5387
300.000000	83.637	165.2333
304.000000	83.615	165.1961
307.000000	83.607	165.4826
311.000000	83.552	165.3083
315.000000	83.470	165.9297
320.000000	83.450	165.9217
325.000000	83.480	165.8626
330.000000	83.338	166.3147
335.000000	83.304	166.1284
340.000000	83.248	166.6212
345.000000	83.249	166.8714
350.000000	83.162	167.4514
355.000000	83.069	167.6793
360.000000	83.076	167.7146
365.000000	83.087	168.4551
370.000000	82.916	168.7400
375.000000	82.958	168.4719
382.000000	82.930	169.1794
387.000000	82.864	169.2103
395.000000	82.829	169.5975
400.000000	82.763	170.0074
406.000000	82.704	169.5818
412.000000	82.740	170.4948
418.000000	82.657	170.6427
425.000000	82.602	170.9756
431.000000	82.531	171.3048
437.000000	82.582	171.7318
444.000000	82.571	172.2965
450.000000	82.460	172.4016
455.000000	82.502	172.6852
462.000000	82.423	172.7170
468.000000	82.410	173.4529
475.000000	82.394	173.5643
482.000000	82.304	173.7808
487.000000	82.351	174.2631
494.000000	82.313	174.4344
500.000000	82.291	175.4771
508.000000	82.306	174.9484
515.000000	82.263	175.5391
522.000000	82.267	176.1233
530.000000	82.205	176.8233
538.000000	82.128	176.9580
545.000000	82.107	176.9635
552.000000	82.206	177.7177
560.000000	82.116	177.8866
570.000000	82.096	178.6534
580.000000	82.106	178.8078
590.000000	82.047	179.1337
600.000000	82.044	-179.9779
608.000000	82.028	-179.7362
615.000000	81.923	-179.3029
622.000000	82.023	-178.6889
630.000000	82.000	-178.5138
640.000000	81.960	-177.9030
650.000000	81.939	-177.0264
660.000000	82.009	-176.7422
670.000000	81.991	-176.6422
680.000000	81.905	-175.5324
690.000000	81.922	-174.9387
700.000000	82.040	-174.7829
710.000000	82.103	-174.5312
720.000000	82.019	-174.4760
730.000000	81.910	-173.5233
740.000000	81.832	-173.4576
750.000000	81.833	-172.2999
762.000000	81.849	-170.4815
775.000000	81.946	-170.0249
788.000000	81.986	-169.4523
800.000000	82.075	-168.7574
812.000000	82.081	-168.0806
825.000000	82.155	-167.0702
838.000000	82.175	-166.3988
850.000000	82.266	-166.3674
862.000000	82.260	-165.5999
875.000000	82.392	-164.5068
885.000000	82.408	-163.8484
900.000000	82.539	-163.5687
912.000000	82.532	-162.7925
925.000000	82.685	-162.1548
938.000000	82.769	-161.8642
950.000000	82.868	-161.4396
962.000000	82.909	-160.6085
975.000000	82.946	-160.2385
988.000000	83.100	-159.7608
1000.000000	83.254	-159.3509
1015.000000	83.300	-159.2360
1030.000000	83.497	-158.5782
1044.000000	83.597	-158.0492
1060.000000	83.705	-157.5474
1075.000000	83.845	-157.3379
1090.000000	83.944	-157.4672
1106.000000	84.070	-157.1872
1120.000000	84.273	-157.1466
1138.000000	84.339	-156.9485
1150.000000	84.455	-156.9059
1172.000000	84.604	-156.7404
1180.000000	84.728	-156.9057
1206.000000	84.877	-157.1672
1220.000000	85.041	-157.0124
1241.000000	85.175	-156.8647
1250.000000	85.230	-156.6835
1265.000000	85.296	-157.3408
1280.000000	85.374	-157.2094
1315.000000	85.605	-157.7971
1320.000000	85.652	-157.6926
1340.000000	85.710	-157.6091
1360.000000	85.841	-157.9898
1380.000000	85.956	-158.3360
1400.000000	86.039	-158.5152
1430.000000	86.245	-158.8012
1450.000000	86.331	-158.7493
1475.000000	86.475	-159.1236
1500.000000	86.622	-159.5753
1525.000000	86.751	-159.5877
1550.000000	86.837	-160.1598
1575.000000	86.935	-160.2763
1600.000000	87.099	-161.0890
1625.000000	87.244	-160.8144
1650.000000	87.357	-161.5663
1675.000000	87.454	-161.8693
1700.000000	87.601	-162.3069
1725.000000	87.723	-162.7910
1750.000000	87.861	-162.8541
1775.000000	87.978	-163.3855
1800.000000	88.092	-163.8733
1825.000000	88.236	-164.4347
1850.000000	88.385	-164.8841
1875.000000	88.493	-165.7008
1900.000000	88.590	-166.0273
1925.000000	88.756	-166.6819
1950.000000	88.861	-167.1971
1975.000000	88.984	-168.1698
2000.000000	89.075	-168.5819
2030.000000	89.243	-169.6266
2060.000000	89.365	-170.2113
2090.000000	89.499	-171.1429
2120.000000	89.627	-172.0982
2140.000000	89.740	-172.9983
2180.000000	89.864	-174.1967
2200.000000	89.972	-175.0730
2240.000000	90.082	-176.6611
2270.000000	90.172	-177.5097
2300.000000	90.313	-178.6963
2330.000000	90.371	-179.7491
2360.000000	90.480	178.9286
2400.000000	90.559	177.4556
2430.000000	90.612	176.3376
2470.000000	90.682	174.4622
2500.000000	90.722	173.2923
2540.000000	90.781	171.5894
2580.000000	90.814	170.0495
2620.000000	90.882	168.2330
2650.000000	90.875	167.2969
2690.000000	90.900	165.6686
2720.000000	90.884	164.4573
2760.000000	90.888	162.9284
2800.000000	90.860	161.6184
2850.000000	90.877	159.7640
2900.000000	90.843	158.1738
2950.000000	90.788	156.3623
3000.000000	90.783	154.5612
3040.000000	90.722	153.2318
3070.000000	90.688	152.1965
3110.000000	90.661	151.1198
3150.000000	90.629	150.0320
3200.000000	90.588	148.4590
3250.000000	90.524	146.9105
3300.000000	90.508	145.6375
3350.000000	90.449	144.3046
3400.000000	90.437	142.7809
3450.000000	90.373	141.3957
3500.000000	90.347	139.7497
3550.000000	90.276	138.4148
3600.000000	90.248	137.2339
3650.000000	90.197	135.6824
3700.000000	90.139	134.4145
3750.000000	90.103	132.5974
3820.000000	90.027	130.6148
3870.000000	89.947	129.1613
3950.000000	89.835	126.7614
4000.000000	89.788	125.1859
4060.000000	89.630	123.2754
4120.000000	89.522	121.6735
4180.000000	89.324	119.5523
4250.000000	89.153	117.3144
4310.000000	88.968	115.7798
4370.000000	88.712	113.8436
4440.000000	88.552	111.7548
4500.000000	88.257	110.1915
4550.000000	88.146	108.6737
4620.000000	87.870	107.2841
4680.000000	87.503	106.2401
4750.000000	87.265	104.5830
4820.000000	86.926	103.1116
4870.000000	86.707	102.5193
4940.000000	86.345	101.5430
5000.000000	86.022	101.0744
5080.000000	85.640	100.4942
5150.000000	85.293	99.6269
5220.000000	85.121	99.3264
5300.000000	84.704	99.8567
5380.000000	84.319	99.4342
5450.000000	83.984	99.8846
5520.000000	83.742	99.9644
5600.000000	83.445	100.7524
5700.000000	83.080	101.0586
5800.000000	82.752	102.6770
5900.000000	82.366	103.4532
6000.000000	82.106	105.1831
6080.000000	81.936	106.4445
6150.000000	81.781	107.3804
6220.000000	81.621	108.0738
6300.000000	81.602	109.9376
6400.000000	81.442	111.9958
6500.000000	81.448	114.4006
6600.000000	81.429	115.7251
6700.000000	81.441	118.1621
6800.000000	81.563	119.9264
6900.000000	81.670	122.1103
7000.000000	82.023	124.0728
7100.000000	82.133	126.2357
7200.000000	82.519	128.0779
7300.000000	82.923	129.1881
7400.000000	83.298	130.6608
7500.000000	83.811	130.8721
7620.000000	84.463	131.6404
7750.000000	85.278	131.9976
7880.000000	86.171	131.0822
8000.000000	87.019	130.2334
8120.000000	88.068	128.4994
8250.000000	89.297	124.1281
8380.000000	90.587	117.5944
8500.000000	91.678	108.7292
8620.000000	92.371	96.9335
8750.000000	92.554	82.3535
8850.000000	92.152	71.8848
9000.000000	90.905	59.0403
9120.000000	89.672	52.6138
9250.000000	88.461	49.1075
9380.000000	87.756	46.3780
9500.000000	86.830	44.6050
9620.000000	86.156	43.6223
9750.000000	85.578	43.0087
9880.000000	85.107	43.5344
10000.000000	84.857	42.9571
10150.000000	84.545	43.2524
10300.000000	84.570	42.6030
10440.000000	84.464	42.1945
10600.000000	84.545	40.5222
10750.000000	84.777	37.5808
10900.000000	84.978	33.1329
11060.000000	84.893	27.4517
11200.000000	84.996	20.9740
11380.000000	84.595	12.7313
11500.000000	84.037	7.0090
11720.000000	82.631	-0.2966
11800.000000	82.283	-3.3676
12060.000000	80.395	-9.9818
12200.000000	79.474	-10.1055
12410.000000	78.312	-11.2296
12500.000000	77.678	-11.1376
12650.000000	76.910	-10.8930
12800.000000	76.448	-7.9205
13150.000000	75.046	-3.2947
13200.000000	74.621	-4.3184
13400.000000	74.382	-4.2094
13600.000000	74.114	1.1129
13800.000000	73.671	0.6400
14000.000000	73.232	0.2997
14300.000000	73.475	3.4905
14500.000000	73.719	4.9662
14750.000000	74.159	4.4360
15000.000000	75.071	3.1274
15250.000000	76.142	-3.9150
15500.000000	76.773	-15.9613
15750.000000	76.121	-34.9359
16000.000000	74.268	-49.9128
16250.000000	72.250	-54.4167
16500.000000	69.974	-60.2477
16750.000000	67.341	-61.8860
17000.000000	64.959	-68.0150
17250.000000	65.742	-18.0931
17500.000000	66.318	-47.2906
17750.000000	62.301	-38.9764
18000.000000	62.687	-33.0310
18250.000000	60.290	-28.7145
18500.000000	60.864	-12.6229
18750.000000	61.346	-3.2025
19000.000000	64.775	0.1985
19250.000000	67.327	-1.2712
19500.000000	68.590	-22.0242
19750.000000	68.458	-38.9559
