* More info about this measurement = https://www.achoreviews.com/solospec
*
* Freq(Hz)	SPL(dB)	Phase(degrees)
20.299999	91.053	-105.9004
20.600000	91.082	-106.2864
20.900000	91.150	-107.1019
21.200001	91.219	-107.9959
21.400000	91.260	-108.5959
21.799999	91.332	-109.7904
22.000000	91.362	-110.3818
22.400000	91.413	-111.5592
22.700001	91.446	-112.4374
23.000000	91.476	-113.3098
23.299999	91.504	-114.1772
23.600000	91.531	-115.0403
24.000000	91.566	-116.1852
24.299999	91.591	-117.0381
24.700001	91.624	-118.1637
25.000000	91.648	-118.9954
25.400000	91.679	-120.0825
25.799999	91.709	-121.1406
26.200001	91.737	-122.1665
26.500000	91.757	-122.9141
26.900000	91.783	-123.8819
27.200001	91.800	-124.5872
27.600000	91.822	-125.5027
28.000000	91.842	-126.3930
28.500000	91.863	-127.4743
29.000000	91.879	-128.5241
29.500000	91.893	-129.5469
30.000000	91.904	-130.5507
30.400000	91.912	-131.3454
30.700001	91.917	-131.9379
31.100000	91.923	-132.7233
31.500000	91.928	-133.5021
32.000000	91.934	-134.4647
32.500000	91.939	-135.4146
33.000000	91.945	-136.3511
33.500000	91.949	-137.2708
34.000000	91.954	-138.1670
34.500000	91.957	-139.0343
35.000000	91.962	-139.8722
35.500000	91.966	-140.6850
36.000000	91.970	-141.4775
36.500000	91.974	-142.2518
37.000000	91.976	-143.0072
37.500000	91.976	-143.7432
38.200001	91.975	-144.7478
38.700001	91.974	-145.4547
39.500000	91.969	-146.5743
40.000000	91.963	-147.2634
40.599998	91.956	-148.0757
41.200001	91.948	-148.8748
41.799999	91.940	-149.6646
42.500000	91.930	-150.5693
43.099998	91.920	-151.3215
43.700001	91.911	-152.0516
44.400002	91.902	-152.8830
45.000000	91.894	-153.5812
45.500000	91.887	-154.1509
46.200001	91.877	-154.9292
46.799999	91.869	-155.5804
47.500000	91.858	-156.3233
48.200001	91.849	-157.0525
48.700001	91.842	-157.5719
49.400002	91.830	-158.3030
50.000000	91.815	-158.9227
50.799999	91.791	-159.7083
51.500000	91.770	-160.3505
52.200001	91.751	-160.9688
53.000000	91.731	-161.6667
53.799999	91.711	-162.3609
54.500000	91.694	-162.9650
55.200001	91.676	-163.5644
56.000000	91.655	-164.2393
57.000000	91.629	-165.0653
58.000000	91.602	-165.8711
59.000000	91.575	-166.6497
60.000000	91.547	-167.3958
60.799999	91.526	-167.9746
61.500000	91.506	-168.4716
62.200001	91.485	-168.9594
63.000000	91.461	-169.5045
64.000000	91.430	-170.1706
65.000000	91.400	-170.8282
66.000000	91.369	-171.4821
67.000000	91.337	-172.1246
68.000000	91.305	-172.7457
69.000000	91.274	-173.3456
70.000000	91.243	-173.9308
71.000000	91.212	-174.5041
72.000000	91.181	-175.0652
73.000000	91.148	-175.6142
74.000000	91.115	-176.1516
75.000000	91.081	-176.6777
76.199997	91.039	-177.2939
77.500000	90.994	-177.9410
78.800003	90.948	-178.5656
80.000000	90.905	-179.1241
81.199997	90.863	-179.6682
82.500000	90.816	179.7547
83.800003	90.770	179.1877
85.000000	90.728	178.6723
86.199997	90.685	178.1663
87.500000	90.638	177.6317
88.500000	90.603	177.2320
90.000000	90.548	176.6528
91.199997	90.505	176.2056
92.500000	90.458	175.7370
93.800003	90.411	175.2839
95.000000	90.367	174.8787
96.199997	90.325	174.4847
97.500000	90.280	174.0655
98.800003	90.236	173.6497
100.000000	90.195	173.2706
101.500000	90.144	172.8079
103.000000	90.093	172.3605
104.400002	90.045	171.9558
106.000000	89.991	171.5083
107.500000	89.940	171.1026
109.000000	89.889	170.7075
110.599998	89.835	170.2973
112.000000	89.789	169.9484
113.800003	89.730	169.5135
115.000000	89.691	169.2325
117.199997	89.621	168.7368
118.000000	89.595	168.5621
120.599998	89.511	168.0147
122.000000	89.465	167.7318
124.099998	89.397	167.3183
125.000000	89.368	167.1446
126.500000	89.320	166.8611
128.000000	89.272	166.5865
131.500000	89.162	165.9850
132.000000	89.146	165.9034
134.000000	89.083	165.5861
136.000000	89.020	165.2806
138.000000	88.957	164.9847
140.000000	88.895	164.6972
143.000000	88.802	164.2832
145.000000	88.740	164.0204
147.500000	88.663	163.7092
150.000000	88.587	163.4181
152.500000	88.512	163.1462
155.000000	88.437	162.8916
157.500000	88.363	162.6489
160.000000	88.289	162.4135
162.500000	88.215	162.1879
165.000000	88.141	161.9779
167.500000	88.068	161.7861
170.000000	87.997	161.6097
172.500000	87.926	161.4446
175.000000	87.856	161.2891
177.500000	87.786	161.1428
180.000000	87.717	161.0054
182.500000	87.648	160.8776
185.000000	87.580	160.7605
187.500000	87.512	160.6534
190.000000	87.446	160.5546
192.500000	87.380	160.4639
195.000000	87.314	160.3811
197.500000	87.249	160.3060
200.000000	87.185	160.2397
203.000000	87.108	160.1711
206.000000	87.033	160.1126
209.000000	86.958	160.0627
212.000000	86.885	160.0206
214.000000	86.837	159.9976
218.000000	86.741	159.9690
220.000000	86.694	159.9645
224.000000	86.599	159.9702
227.000000	86.529	159.9804
230.000000	86.461	159.9943
233.000000	86.393	160.0141
236.000000	86.327	160.0401
240.000000	86.239	160.0835
243.000000	86.175	160.1219
247.000000	86.090	160.1821
250.000000	86.028	160.2375
254.000000	85.944	160.3275
258.000000	85.862	160.4309
262.000000	85.781	160.5420
265.000000	85.721	160.6290
269.000000	85.643	160.7500
272.000000	85.586	160.8453
276.000000	85.511	160.9798
280.000000	85.437	161.1238
285.000000	85.346	161.3186
290.000000	85.257	161.5261
295.000000	85.171	161.7415
300.000000	85.086	161.9642
304.000000	85.019	162.1473
307.000000	84.969	162.2875
311.000000	84.904	162.4791
315.000000	84.839	162.6778
320.000000	84.760	162.9370
325.000000	84.683	163.2055
330.000000	84.608	163.4802
335.000000	84.535	163.7592
340.000000	84.463	164.0421
345.000000	84.392	164.3293
350.000000	84.323	164.6212
355.000000	84.254	164.9197
360.000000	84.187	165.2259
365.000000	84.122	165.5389
370.000000	84.059	165.8562
375.000000	83.997	166.1773
382.000000	83.913	166.6347
387.000000	83.854	166.9669
395.000000	83.762	167.5085
400.000000	83.706	167.8531
406.000000	83.640	168.2723
412.000000	83.576	168.6964
418.000000	83.514	169.1227
425.000000	83.444	169.6206
431.000000	83.385	170.0490
437.000000	83.328	170.4794
444.000000	83.262	170.9849
450.000000	83.208	171.4224
455.000000	83.165	171.7908
462.000000	83.105	172.3123
468.000000	83.056	172.7645
475.000000	83.000	173.2977
482.000000	82.947	173.8352
487.000000	82.909	174.2200
494.000000	82.858	174.7584
500.000000	82.816	175.2212
508.000000	82.761	175.8433
515.000000	82.715	176.3920
522.000000	82.671	176.9422
530.000000	82.622	177.5709
538.000000	82.575	178.2001
545.000000	82.536	178.7518
552.000000	82.498	179.3069
560.000000	82.456	179.9469
570.000000	82.407	-179.2517
580.000000	82.362	-178.4528
590.000000	82.319	-177.6532
600.000000	82.278	-176.8538
608.000000	82.247	-176.2151
615.000000	82.222	-175.6567
622.000000	82.198	-175.0994
630.000000	82.172	-174.4646
640.000000	82.142	-173.6740
650.000000	82.115	-172.8880
660.000000	82.089	-172.1096
670.000000	82.066	-171.3412
680.000000	82.043	-170.5902
690.000000	82.020	-169.8667
700.000000	81.995	-169.1748
710.000000	81.964	-168.5150
720.000000	81.922	-167.8787
730.000000	81.859	-167.2207
740.000000	81.771	-166.4307
750.000000	81.667	-165.3564
762.000000	81.566	-163.6001
775.000000	81.545	-161.4153
788.000000	81.608	-159.3955
800.000000	81.703	-157.7941
812.000000	81.816	-156.4429
825.000000	81.937	-155.2521
838.000000	82.041	-154.2539
850.000000	82.122	-153.3990
862.000000	82.194	-152.5477
875.000000	82.266	-151.6095
885.000000	82.321	-150.8765
900.000000	82.405	-149.7665
912.000000	82.475	-148.8795
925.000000	82.553	-147.9292
938.000000	82.636	-146.9936
950.000000	82.716	-146.1446
962.000000	82.799	-145.3128
975.000000	82.893	-144.4330
988.000000	82.989	-143.5755
1000.000000	83.082	-142.8058
1015.000000	83.201	-141.8785
1030.000000	83.323	-140.9928
1044.000000	83.439	-140.2027
1060.000000	83.574	-139.3417
1075.000000	83.702	-138.5746
1090.000000	83.831	-137.8463
1106.000000	83.969	-137.1118
1120.000000	84.090	-136.5024
1138.000000	84.244	-135.7604
1150.000000	84.347	-135.2907
1172.000000	84.535	-134.4774
1180.000000	84.602	-134.1953
1206.000000	84.820	-133.3219
1220.000000	84.935	-132.8780
1241.000000	85.106	-132.2423
1250.000000	85.179	-131.9798
1265.000000	85.299	-131.5543
1280.000000	85.419	-131.1416
1315.000000	85.696	-130.2176
1320.000000	85.735	-130.0897
1340.000000	85.893	-129.5877
1360.000000	86.050	-129.1006
1380.000000	86.208	-128.6285
1400.000000	86.366	-128.1719
1430.000000	86.605	-127.5163
1450.000000	86.766	-127.0990
1475.000000	86.969	-126.6009
1500.000000	87.176	-126.1325
1525.000000	87.385	-125.6964
1550.000000	87.598	-125.2946
1575.000000	87.815	-124.9294
1600.000000	88.035	-124.6041
1625.000000	88.260	-124.3236
1650.000000	88.488	-124.0930
1675.000000	88.721	-123.9178
1700.000000	88.956	-123.8026
1725.000000	89.195	-123.7508
1750.000000	89.438	-123.7655
1775.000000	89.682	-123.8510
1800.000000	89.928	-124.0122
1825.000000	90.175	-124.2537
1850.000000	90.423	-124.5802
1875.000000	90.670	-124.9961
1900.000000	90.916	-125.5052
1925.000000	91.159	-126.1108
1950.000000	91.398	-126.8161
1975.000000	91.632	-127.6235
2000.000000	91.859	-128.5341
2030.000000	92.120	-129.7618
2060.000000	92.366	-131.1323
2090.000000	92.594	-132.6385
2120.000000	92.801	-134.2701
2140.000000	92.926	-135.4207
2180.000000	93.142	-137.8495
2200.000000	93.232	-139.1153
2240.000000	93.374	-141.7152
2270.000000	93.446	-143.6960
2300.000000	93.488	-145.6745
2330.000000	93.502	-147.6256
2360.000000	93.488	-149.5255
2400.000000	93.430	-151.9431
2430.000000	93.360	-153.6471
2470.000000	93.235	-155.7480
2500.000000	93.122	-157.1832
2540.000000	92.950	-158.8995
2580.000000	92.760	-160.3865
2620.000000	92.557	-161.6479
2650.000000	92.400	-162.4512
2690.000000	92.186	-163.3413
2720.000000	92.025	-163.8811
2760.000000	91.813	-164.4442
2800.000000	91.604	-164.8451
2850.000000	91.352	-165.1430
2900.000000	91.111	-165.2435
2950.000000	90.882	-165.1755
3000.000000	90.666	-164.9615
3040.000000	90.501	-164.6960
3070.000000	90.382	-164.4456
3110.000000	90.228	-164.0436
3150.000000	90.080	-163.5603
3200.000000	89.903	-162.8295
3250.000000	89.738	-161.9389
3300.000000	89.588	-160.8739
3350.000000	89.462	-159.6372
3400.000000	89.367	-158.2553
3450.000000	89.309	-156.7728
3500.000000	89.291	-155.2433
3550.000000	89.314	-153.7224
3600.000000	89.375	-152.2597
3650.000000	89.470	-150.8924
3700.000000	89.594	-149.6438
3750.000000	89.743	-148.5275
3820.000000	89.988	-147.2015
3870.000000	90.186	-146.4329
3950.000000	90.542	-145.5423
4000.000000	90.786	-145.2263
4060.000000	91.098	-145.1371
4120.000000	91.425	-145.4179
4180.000000	91.755	-146.1270
4250.000000	92.123	-147.5562
4310.000000	92.400	-149.3032
4370.000000	92.619	-151.4565
4440.000000	92.785	-154.2658
4500.000000	92.860	-156.7242
4550.000000	92.892	-158.7577
4620.000000	92.912	-161.7209
4680.000000	92.891	-164.5607
4750.000000	92.774	-168.2717
4820.000000	92.511	-172.1305
4870.000000	92.221	-174.7176
4940.000000	91.679	-177.7447
5000.000000	91.106	-179.5294
5080.000000	90.228	179.5961
5150.000000	89.411	-179.5217
5220.000000	88.634	-177.0500
5300.000000	87.937	-172.6439
5380.000000	87.582	-167.3444
5450.000000	87.611	-162.7475
5520.000000	87.918	-159.1883
5600.000000	88.374	-157.4633
5700.000000	88.728	-158.1246
5800.000000	88.776	-159.6203
5900.000000	88.633	-160.6516
6000.000000	88.397	-160.9460
6080.000000	88.184	-160.6750
6150.000000	87.997	-160.1148
6220.000000	87.821	-159.2976
6300.000000	87.641	-158.1046
6400.000000	87.459	-156.3107
6500.000000	87.329	-154.2694
6600.000000	87.256	-152.0540
6700.000000	87.243	-149.7193
6800.000000	87.293	-147.3097
6900.000000	87.412	-144.8690
7000.000000	87.606	-142.4497
7100.000000	87.883	-140.1207
7200.000000	88.250	-137.9695
7300.000000	88.710	-136.1015
7400.000000	89.266	-134.6415
7500.000000	89.915	-133.7437
7620.000000	90.801	-133.6864
7750.000000	91.838	-135.3326
7880.000000	92.851	-139.2691
8000.000000	93.638	-145.2000
8120.000000	94.162	-153.1264
8250.000000	94.336	-163.0158
8380.000000	94.075	-172.7480
8500.000000	93.503	179.6320
8620.000000	92.711	173.9331
8750.000000	91.734	169.9640
8850.000000	90.976	168.2377
9000.000000	89.920	167.2463
9120.000000	89.188	167.3998
9250.000000	88.523	168.1565
9380.000000	87.988	169.2868
9500.000000	87.601	170.5164
9620.000000	87.309	171.8243
9750.000000	87.096	173.2335
9880.000000	86.983	174.5378
10000.000000	86.961	175.5667
10150.000000	87.034	176.5206
10300.000000	87.205	177.0321
10440.000000	87.447	177.0658
10600.000000	87.825	176.4956
10750.000000	88.281	175.1977
10900.000000	88.825	172.8780
11060.000000	89.459	168.8667
11200.000000	89.995	163.7100
11380.000000	90.522	154.5665
11500.000000	90.692	147.0699
11720.000000	90.481	131.9329
11800.000000	90.225	126.5500
12060.000000	88.838	111.9229
12200.000000	87.863	106.4132
12410.000000	86.331	100.9854
12500.000000	85.702	99.4665
12650.000000	84.743	97.6751
12800.000000	83.926	96.5062
13150.000000	82.670	94.7716
13200.000000	82.570	94.5290
13400.000000	82.382	93.2902
13600.000000	82.552	91.2127
13800.000000	83.078	87.5765
14000.000000	83.880	81.3941
14300.000000	85.177	64.9485
14500.000000	85.727	48.4555
14750.000000	85.684	23.5444
15000.000000	84.706	-1.4830
15250.000000	82.950	-22.5745
15500.000000	80.741	-38.9188
15750.000000	78.396	-51.7963
16000.000000	76.121	-62.5868
16250.000000	73.998	-71.9565
16500.000000	72.065	-80.0856
16750.000000	70.417	-87.3159
17000.000000	69.238	-94.8126
17250.000000	68.597	-104.3095
17500.000000	68.336	-116.6718
17750.000000	68.321	-131.8926
18000.000000	68.536	-150.2477
18250.000000	68.973	-172.5467
18500.000000	69.550	159.9548
18750.000000	70.050	125.9337
19000.000000	70.154	85.4308
19250.000000	69.626	41.4557
19500.000000	68.478	-0.6671
19750.000000	67.007	-34.8765
