* More info about this measurement = https://www.achoreviews.com/solospec
*
* Freq(Hz)	SPL(dB)	Phase(degrees)
20.299999	92.055	-110.5461
20.600000	92.078	-110.9590
20.900000	92.131	-111.8313
21.200001	92.187	-112.7871
21.400000	92.222	-113.4272
21.799999	92.286	-114.6945
22.000000	92.315	-115.3164
22.400000	92.368	-116.5403
22.700001	92.404	-117.4372
23.000000	92.436	-118.3117
23.299999	92.465	-119.1634
23.600000	92.491	-119.9952
24.000000	92.524	-121.0814
24.299999	92.546	-121.8857
24.700001	92.574	-122.9496
25.000000	92.592	-123.7406
25.400000	92.613	-124.7806
25.799999	92.631	-125.7959
26.200001	92.646	-126.7817
26.500000	92.656	-127.5023
26.900000	92.668	-128.4419
27.200001	92.676	-129.1337
27.600000	92.685	-130.0420
28.000000	92.693	-130.9349
28.500000	92.700	-132.0288
29.000000	92.707	-133.0979
29.500000	92.712	-134.1442
30.000000	92.716	-135.1699
30.400000	92.718	-135.9757
30.700001	92.718	-136.5710
31.100000	92.718	-137.3524
31.500000	92.718	-138.1187
32.000000	92.716	-139.0541
32.500000	92.714	-139.9635
33.000000	92.711	-140.8483
33.500000	92.707	-141.7122
34.000000	92.702	-142.5593
34.500000	92.695	-143.3901
35.000000	92.686	-144.2032
35.500000	92.678	-144.9992
36.000000	92.669	-145.7813
36.500000	92.660	-146.5516
37.000000	92.649	-147.3074
37.500000	92.636	-148.0437
38.200001	92.616	-149.0408
38.700001	92.602	-149.7381
39.500000	92.583	-150.8473
40.000000	92.571	-151.5328
40.599998	92.558	-152.3337
41.200001	92.542	-153.1012
41.799999	92.525	-153.8378
42.500000	92.500	-154.6745
43.099998	92.478	-155.3911
43.700001	92.458	-156.1152
44.400002	92.435	-156.9474
45.000000	92.417	-157.6167
45.500000	92.402	-158.1372
46.200001	92.377	-158.8416
46.799999	92.350	-159.4659
47.500000	92.321	-160.2603
48.200001	92.303	-161.1563
48.700001	92.296	-161.8496
49.400002	92.282	-162.7945
50.000000	92.256	-163.4440
50.799999	92.208	-163.9890
51.500000	92.168	-164.3043
52.200001	92.132	-164.6643
53.000000	92.094	-165.2097
53.799999	92.057	-165.8410
54.500000	92.028	-166.4137
55.200001	91.998	-166.9837
56.000000	91.961	-167.6177
57.000000	91.914	-168.3734
58.000000	91.869	-169.0848
59.000000	91.822	-169.7639
60.000000	91.775	-170.4351
60.799999	91.738	-170.9683
61.500000	91.705	-171.4234
62.200001	91.672	-171.8640
63.000000	91.635	-172.3545
64.000000	91.587	-172.9550
65.000000	91.540	-173.5384
66.000000	91.494	-174.1022
67.000000	91.448	-174.6450
68.000000	91.402	-175.1603
69.000000	91.356	-175.6533
70.000000	91.310	-176.1385
71.000000	91.261	-176.6194
72.000000	91.213	-177.0878
73.000000	91.165	-177.5385
74.000000	91.116	-177.9724
75.000000	91.066	-178.3915
76.199997	91.005	-178.8771
77.500000	90.939	-179.3863
78.800003	90.875	-179.8783
80.000000	90.817	179.6839
81.199997	90.761	179.2596
82.500000	90.699	178.8148
83.800003	90.638	178.3926
85.000000	90.581	178.0262
86.199997	90.525	177.6726
87.500000	90.464	177.2927
88.500000	90.417	177.0050
90.000000	90.347	176.5910
91.199997	90.291	176.2756
92.500000	90.232	175.9466
93.800003	90.173	175.6295
95.000000	90.120	175.3459
96.199997	90.068	175.0724
97.500000	90.012	174.7988
98.800003	89.953	174.5595
100.000000	89.897	174.3613
101.500000	89.831	174.1107
103.000000	89.768	173.8431
104.400002	89.709	173.5950
106.000000	89.642	173.3309
107.500000	89.580	173.1026
109.000000	89.518	172.8878
110.599998	89.454	172.6711
112.000000	89.399	172.4924
113.800003	89.331	172.2800
115.000000	89.287	172.1487
117.199997	89.210	171.9215
118.000000	89.181	171.8424
120.599998	89.085	171.6039
122.000000	89.031	171.4885
124.099998	88.953	171.3330
125.000000	88.921	171.2716
126.500000	88.867	171.1745
128.000000	88.814	171.0840
131.500000	88.691	170.9017
132.000000	88.673	170.8789
134.000000	88.604	170.7957
136.000000	88.538	170.7216
138.000000	88.474	170.6569
140.000000	88.410	170.6039
143.000000	88.319	170.5460
145.000000	88.266	170.5153
147.500000	88.215	170.4839
150.000000	88.157	170.4803
152.500000	88.063	170.5140
155.000000	87.958	170.5639
157.500000	87.868	170.6108
160.000000	87.790	170.6546
162.500000	87.718	170.7070
165.000000	87.648	170.7771
167.500000	87.580	170.8640
170.000000	87.511	170.9623
172.500000	87.444	171.0673
175.000000	87.377	171.1763
177.500000	87.312	171.2894
180.000000	87.248	171.4095
182.500000	87.185	171.5405
185.000000	87.123	171.6831
187.500000	87.064	171.8353
190.000000	87.006	171.9960
192.500000	86.948	172.1633
195.000000	86.890	172.3355
197.500000	86.834	172.5122
200.000000	86.778	172.6948
203.000000	86.712	172.9207
206.000000	86.646	173.1527
209.000000	86.581	173.3927
212.000000	86.519	173.6377
214.000000	86.478	173.8027
218.000000	86.400	174.1407
220.000000	86.361	174.3139
224.000000	86.286	174.6679
227.000000	86.230	174.9417
230.000000	86.175	175.2203
233.000000	86.121	175.5005
236.000000	86.069	175.7823
240.000000	86.004	176.1550
243.000000	85.959	176.4188
247.000000	85.904	176.7514
250.000000	85.860	177.0280
254.000000	85.793	177.4754
258.000000	85.723	177.9521
262.000000	85.658	178.4047
265.000000	85.613	178.7318
269.000000	85.556	179.1629
272.000000	85.515	179.4855
276.000000	85.461	179.9168
280.000000	85.410	-179.6462
285.000000	85.347	-179.0943
290.000000	85.286	-178.5435
295.000000	85.227	-177.9902
300.000000	85.171	-177.4315
304.000000	85.126	-176.9790
307.000000	85.093	-176.6366
311.000000	85.050	-176.1775
315.000000	85.008	-175.7166
320.000000	84.958	-175.1395
325.000000	84.910	-174.5613
330.000000	84.863	-173.9811
335.000000	84.817	-173.4002
340.000000	84.769	-172.8212
345.000000	84.722	-172.2427
350.000000	84.678	-171.6602
355.000000	84.641	-171.0704
360.000000	84.607	-170.4764
365.000000	84.573	-169.8820
370.000000	84.539	-169.2883
375.000000	84.505	-168.6963
382.000000	84.459	-167.8698
387.000000	84.427	-167.2810
395.000000	84.379	-166.3436
400.000000	84.350	-165.7570
406.000000	84.316	-165.0473
412.000000	84.284	-164.3323
418.000000	84.255	-163.6156
425.000000	84.221	-162.7841
431.000000	84.192	-162.0795
437.000000	84.163	-161.3839
444.000000	84.130	-160.5795
450.000000	84.105	-159.8796
455.000000	84.087	-159.2797
462.000000	84.065	-158.4310
468.000000	84.047	-157.7117
475.000000	84.026	-156.8801
482.000000	84.006	-156.0515
487.000000	83.991	-155.4619
494.000000	83.972	-154.6383
500.000000	83.958	-153.9306
508.000000	83.940	-152.9826
515.000000	83.925	-152.1512
522.000000	83.912	-151.3203
530.000000	83.899	-150.3722
538.000000	83.889	-149.4261
545.000000	83.883	-148.5976
552.000000	83.875	-147.7708
560.000000	83.864	-146.8302
570.000000	83.851	-145.6551
580.000000	83.842	-144.4781
590.000000	83.836	-143.2998
600.000000	83.835	-142.1198
608.000000	83.835	-141.1790
615.000000	83.836	-140.3597
622.000000	83.838	-139.5415
630.000000	83.841	-138.6041
640.000000	83.844	-137.4275
650.000000	83.849	-136.2472
660.000000	83.860	-135.0655
670.000000	83.875	-133.8849
680.000000	83.892	-132.7090
690.000000	83.908	-131.5423
700.000000	83.922	-130.3826
710.000000	83.933	-129.2138
720.000000	83.942	-128.0015
730.000000	83.951	-126.7142
740.000000	83.968	-125.3468
750.000000	84.000	-123.9272
762.000000	84.066	-122.2454
775.000000	84.165	-120.6006
788.000000	84.262	-119.1747
800.000000	84.336	-117.9290
812.000000	84.400	-116.6565
825.000000	84.469	-115.2285
838.000000	84.541	-113.7703
850.000000	84.611	-112.4157
862.000000	84.685	-111.0604
875.000000	84.769	-109.5978
885.000000	84.839	-108.4803
900.000000	84.949	-106.8220
912.000000	85.043	-105.5151
925.000000	85.150	-104.1222
938.000000	85.261	-102.7561
950.000000	85.368	-101.5157
962.000000	85.478	-100.2901
975.000000	85.600	-98.9832
988.000000	85.725	-97.7066
1000.000000	85.844	-96.5585
1015.000000	85.996	-95.1642
1030.000000	86.151	-93.8140
1044.000000	86.296	-92.5937
1060.000000	86.463	-91.2418
1075.000000	86.620	-90.0129
1090.000000	86.778	-88.8230
1106.000000	86.946	-87.5971
1120.000000	87.093	-86.5566
1138.000000	87.282	-85.2552
1150.000000	87.407	-84.4068
1172.000000	87.635	-82.8850
1180.000000	87.717	-82.3420
1206.000000	87.985	-80.6132
1220.000000	88.129	-79.7021
1241.000000	88.343	-78.3568
1250.000000	88.435	-77.7864
1265.000000	88.587	-76.8416
1280.000000	88.739	-75.9031
1315.000000	89.100	-73.7378
1320.000000	89.152	-73.4310
1340.000000	89.363	-72.2079
1360.000000	89.577	-70.9891
1380.000000	89.796	-69.7757
1400.000000	90.021	-68.5725
1430.000000	90.374	-66.7973
1450.000000	90.619	-65.6437
1475.000000	90.940	-64.2481
1500.000000	91.278	-62.9172
1525.000000	91.635	-61.6738
1550.000000	92.011	-60.5471
1575.000000	92.407	-59.5684
1600.000000	92.821	-58.7760
1625.000000	93.249	-58.2067
1650.000000	93.686	-57.8931
1675.000000	94.125	-57.8648
1700.000000	94.557	-58.1408
1725.000000	94.975	-58.7269
1750.000000	95.371	-59.6157
1775.000000	95.736	-60.7856
1800.000000	96.065	-62.2026
1825.000000	96.351	-63.8238
1850.000000	96.593	-65.6003
1875.000000	96.788	-67.4814
1900.000000	96.936	-69.4182
1925.000000	97.037	-71.3637
1950.000000	97.094	-73.2753
1975.000000	97.109	-75.1155
2000.000000	97.085	-76.8515
2030.000000	97.011	-78.7577
2060.000000	96.893	-80.4356
2090.000000	96.740	-81.8586
2120.000000	96.557	-83.0124
2140.000000	96.423	-83.6296
2180.000000	96.134	-84.5021
2200.000000	95.983	-84.7615
2240.000000	95.675	-84.9441
2270.000000	95.445	-84.8047
2300.000000	95.220	-84.4488
2330.000000	95.003	-83.8961
2360.000000	94.798	-83.1671
2400.000000	94.545	-81.9585
2430.000000	94.375	-80.9036
2470.000000	94.174	-79.3413
2500.000000	94.043	-78.0803
2540.000000	93.897	-76.3157
2580.000000	93.780	-74.4929
2620.000000	93.690	-72.6480
2650.000000	93.637	-71.2666
2690.000000	93.586	-69.4432
2720.000000	93.559	-68.0965
2760.000000	93.536	-66.3361
2800.000000	93.524	-64.6235
2850.000000	93.523	-62.5579
2900.000000	93.531	-60.5698
2950.000000	93.546	-58.6349
3000.000000	93.566	-56.7199
3040.000000	93.588	-55.1829
3070.000000	93.609	-54.0220
3110.000000	93.644	-52.4623
3150.000000	93.691	-50.8935
3200.000000	93.770	-48.9338
3250.000000	93.874	-47.0020
3300.000000	94.006	-45.1350
3350.000000	94.168	-43.3753
3400.000000	94.359	-41.7696
3450.000000	94.578	-40.3680
3500.000000	94.823	-39.2269
3550.000000	95.087	-38.4080
3600.000000	95.365	-37.9752
3650.000000	95.642	-37.9889
3700.000000	95.906	-38.4977
3750.000000	96.137	-39.5283
3820.000000	96.368	-41.8219
3870.000000	96.440	-43.9762
3950.000000	96.350	-47.9437
4000.000000	96.153	-50.4565
4060.000000	95.777	-53.1684
4120.000000	95.268	-55.2651
4180.000000	94.657	-56.5409
4250.000000	93.868	-56.8795
4310.000000	93.174	-56.2187
4370.000000	92.505	-54.8122
4440.000000	91.799	-52.5033
4500.000000	91.281	-50.2563
4550.000000	90.912	-48.4160
4620.000000	90.463	-46.1707
4680.000000	90.095	-44.6697
4750.000000	89.620	-43.2932
4820.000000	89.050	-41.9413
4870.000000	88.578	-40.7362
4940.000000	87.846	-38.4580
5000.000000	87.181	-35.8696
5080.000000	86.293	-31.5578
5150.000000	85.549	-27.1272
5220.000000	84.859	-22.2430
5300.000000	84.144	-16.2747
5380.000000	83.507	-10.0326
5450.000000	83.010	-4.4200
5520.000000	82.562	1.2913
5600.000000	82.107	7.9028
5700.000000	81.615	16.2468
5800.000000	81.200	24.6445
5900.000000	80.855	33.0805
6000.000000	80.576	41.5297
6080.000000	80.397	48.2834
6150.000000	80.271	54.1897
6220.000000	80.174	60.0933
6300.000000	80.097	66.8329
6400.000000	80.055	75.2387
6500.000000	80.073	83.6114
6600.000000	80.154	91.9330
6700.000000	80.298	100.1921
6800.000000	80.509	108.3774
6900.000000	80.791	116.4674
7000.000000	81.150	124.4309
7100.000000	81.592	132.2261
7200.000000	82.126	139.8005
7300.000000	82.762	147.0901
7400.000000	83.513	154.0047
7500.000000	84.386	160.4055
7620.000000	85.595	167.1093
7750.000000	87.059	172.6035
7880.000000	88.568	175.4828
8000.000000	89.843	175.2030
8120.000000	90.840	171.9591
8250.000000	91.449	165.8981
8380.000000	91.494	159.1045
8500.000000	91.074	154.1312
8620.000000	90.332	151.5949
8750.000000	89.344	151.8798
8850.000000	88.565	153.9689
9000.000000	87.519	159.3574
9120.000000	86.863	164.9831
9250.000000	86.370	171.8489
9380.000000	86.116	179.1096
9500.000000	86.091	-174.1294
9620.000000	86.262	-167.5567
9750.000000	86.659	-160.9224
9880.000000	87.255	-155.1082
10000.000000	87.946	-150.7819
10150.000000	88.919	-147.2664
10300.000000	89.882	-146.3662
10440.000000	90.627	-148.0842
10600.000000	91.148	-152.5919
10750.000000	91.230	-158.0490
10900.000000	90.920	-163.1241
11060.000000	90.251	-166.7365
11200.000000	89.509	-167.9154
11380.000000	88.566	-167.1462
11500.000000	88.052	-165.8884
11720.000000	87.409	-163.9320
11800.000000	87.229	-163.6182
12060.000000	86.574	-163.6450
12200.000000	86.126	-163.5884
12410.000000	85.407	-162.6020
12500.000000	85.129	-161.8680
12650.000000	84.772	-160.5153
12800.000000	84.595	-159.5336
13150.000000	84.728	-162.9291
13200.000000	84.747	-164.3886
13400.000000	84.586	-172.4729
13600.000000	83.833	178.0858
13800.000000	82.409	171.0724
14000.000000	80.473	168.7216
14300.000000	77.250	172.9827
14500.000000	75.315	178.7862
14750.000000	73.469	-172.8648
15000.000000	72.371	-164.6614
15250.000000	72.037	-157.8081
15500.000000	72.387	-153.8457
15750.000000	73.165	-154.6488
16000.000000	73.967	-161.8323
16250.000000	74.387	-175.5941
16500.000000	74.143	166.1205
16750.000000	73.122	147.1250
17000.000000	71.424	130.7361
17250.000000	69.325	117.7101
17500.000000	67.158	106.7639
17750.000000	65.212	96.0905
18000.000000	63.678	84.2968
18250.000000	62.701	70.4374
18500.000000	62.366	53.6392
18750.000000	62.607	33.0090
19000.000000	63.221	7.7811
19250.000000	63.955	-22.0942
19500.000000	64.588	-54.6639
19750.000000	64.994	-84.5342
