* More info about this measurement = https://www.achoreviews.com/solospec
*
* Freq(Hz)	SPL(dB)	Phase(degrees)
20.299999	97.688	-118.6229
20.600000	97.707	-118.9507
20.900000	97.753	-119.6431
21.200001	97.801	-120.4009
21.400000	97.831	-120.9060
21.799999	97.887	-121.8963
22.000000	97.913	-122.3762
22.400000	97.964	-123.3084
22.700001	98.000	-123.9855
23.000000	98.034	-124.6464
23.299999	98.065	-125.2958
23.600000	98.093	-125.9380
24.000000	98.126	-126.7881
24.299999	98.146	-127.4221
24.700001	98.167	-128.2585
25.000000	98.180	-128.8732
25.400000	98.195	-129.6673
25.799999	98.208	-130.4265
26.200001	98.221	-131.1526
26.500000	98.233	-131.6811
26.900000	98.249	-132.3736
27.200001	98.261	-132.8896
27.600000	98.277	-133.5766
28.000000	98.292	-134.2602
28.500000	98.307	-135.1006
29.000000	98.321	-135.9173
29.500000	98.334	-136.7111
30.000000	98.345	-137.4867
30.400000	98.352	-138.0936
30.700001	98.356	-138.5387
31.100000	98.360	-139.1168
31.500000	98.364	-139.6787
32.000000	98.371	-140.3669
32.500000	98.378	-141.0476
33.000000	98.384	-141.7180
33.500000	98.388	-142.3660
34.000000	98.390	-142.9852
34.500000	98.393	-143.5853
35.000000	98.397	-144.1814
35.500000	98.401	-144.7780
36.000000	98.403	-145.3643
36.500000	98.404	-145.9283
37.000000	98.408	-146.4711
37.500000	98.413	-147.0070
38.200001	98.420	-147.7660
38.700001	98.420	-148.3075
39.500000	98.414	-149.1338
40.000000	98.410	-149.6242
40.599998	98.408	-150.2103
41.200001	98.406	-150.8153
41.799999	98.402	-151.4335
42.500000	98.395	-152.1396
43.099998	98.390	-152.7114
43.700001	98.387	-153.2503
44.400002	98.389	-153.8462
45.000000	98.391	-154.3397
45.500000	98.390	-154.7461
46.200001	98.383	-155.3117
46.799999	98.370	-155.7897
47.500000	98.351	-156.3366
48.200001	98.333	-156.8819
48.700001	98.324	-157.2773
49.400002	98.317	-157.8390
50.000000	98.315	-158.3205
50.799999	98.312	-158.9520
51.500000	98.307	-159.4911
52.200001	98.295	-160.0155
53.000000	98.278	-160.5897
53.799999	98.261	-161.1293
54.500000	98.249	-161.5768
55.200001	98.240	-162.0157
56.000000	98.231	-162.5209
57.000000	98.213	-163.1529
58.000000	98.193	-163.7661
59.000000	98.174	-164.3588
60.000000	98.159	-164.9369
60.799999	98.147	-165.3882
61.500000	98.136	-165.7742
62.200001	98.125	-166.1505
63.000000	98.111	-166.5685
64.000000	98.091	-167.0861
65.000000	98.067	-167.6175
66.000000	98.041	-168.1575
67.000000	98.016	-168.6843
68.000000	97.996	-169.1869
69.000000	97.977	-169.6672
70.000000	97.959	-170.1309
71.000000	97.940	-170.5861
72.000000	97.921	-171.0391
73.000000	97.898	-171.4854
74.000000	97.873	-171.9154
75.000000	97.846	-172.3273
76.199997	97.813	-172.8106
77.500000	97.779	-173.3300
78.800003	97.746	-173.8279
80.000000	97.717	-174.2513
81.199997	97.688	-174.6517
82.500000	97.656	-175.0866
83.800003	97.622	-175.5268
85.000000	97.589	-175.9279
86.199997	97.555	-176.3203
87.500000	97.518	-176.7314
88.500000	97.491	-177.0363
90.000000	97.454	-177.4825
91.199997	97.427	-177.8307
92.500000	97.398	-178.1933
93.800003	97.366	-178.5446
95.000000	97.334	-178.8659
96.199997	97.302	-179.1849
97.500000	97.270	-179.5225
98.800003	97.239	-179.8480
100.000000	97.209	179.8590
101.500000	97.169	179.4966
103.000000	97.127	179.1396
104.400002	97.091	178.8234
106.000000	97.054	178.4942
107.500000	97.018	178.2001
109.000000	96.981	177.9015
110.599998	96.939	177.5881
112.000000	96.902	177.3317
113.800003	96.854	177.0256
115.000000	96.822	176.8280
117.199997	96.765	176.4680
118.000000	96.745	176.3385
120.599998	96.682	175.9164
122.000000	96.649	175.6887
124.099998	96.598	175.3593
125.000000	96.577	175.2231
126.500000	96.541	175.0022
128.000000	96.506	174.7896
131.500000	96.425	174.3398
132.000000	96.414	174.2823
134.000000	96.369	174.0653
136.000000	96.322	173.8607
138.000000	96.275	173.6707
140.000000	96.227	173.4973
143.000000	96.153	173.2488
145.000000	96.102	173.0889
147.500000	96.041	172.9020
150.000000	95.984	172.7257
152.500000	95.928	172.5580
155.000000	95.872	172.3994
157.500000	95.814	172.2437
160.000000	95.755	172.0974
162.500000	95.697	171.9787
165.000000	95.640	171.8828
167.500000	95.585	171.7896
170.000000	95.532	171.6966
172.500000	95.480	171.6201
175.000000	95.428	171.5668
177.500000	95.375	171.5228
180.000000	95.322	171.4729
182.500000	95.270	171.4174
185.000000	95.219	171.3668
187.500000	95.167	171.3317
190.000000	95.117	171.3166
192.500000	95.067	171.3185
195.000000	95.019	171.3330
197.500000	94.971	171.3572
200.000000	94.924	171.3856
203.000000	94.866	171.4148
206.000000	94.807	171.4362
209.000000	94.747	171.4591
212.000000	94.687	171.4986
214.000000	94.646	171.5385
218.000000	94.561	171.6463
220.000000	94.517	171.7170
224.000000	94.423	171.9157
227.000000	94.350	172.1343
230.000000	94.279	172.4356
233.000000	94.217	172.8321
236.000000	94.171	173.3012
240.000000	94.139	173.9448
243.000000	94.135	174.3671
247.000000	94.145	174.7919
250.000000	94.154	175.0064
254.000000	94.159	175.1936
258.000000	94.153	175.3270
262.000000	94.138	175.4527
265.000000	94.124	175.5527
269.000000	94.101	175.6993
272.000000	94.084	175.8238
276.000000	94.060	176.0065
280.000000	94.038	176.1984
285.000000	94.013	176.4476
290.000000	93.990	176.7215
295.000000	93.970	177.0372
300.000000	93.955	177.4047
304.000000	93.949	177.7391
307.000000	93.949	178.0133
311.000000	93.954	178.4073
315.000000	93.963	178.8293
320.000000	93.976	179.3818
325.000000	93.987	179.9333
330.000000	93.995	-179.5444
335.000000	94.000	-179.0580
340.000000	94.002	-178.5966
345.000000	94.001	-178.1441
350.000000	93.997	-177.6826
355.000000	93.990	-177.1985
360.000000	93.982	-176.6930
365.000000	93.974	-176.1614
370.000000	93.969	-175.5975
375.000000	93.972	-175.0220
382.000000	93.986	-174.2590
387.000000	93.998	-173.7496
395.000000	94.011	-172.9447
400.000000	94.015	-172.4364
406.000000	94.017	-171.8255
412.000000	94.016	-171.2086
418.000000	94.015	-170.5857
425.000000	94.013	-169.8660
431.000000	94.013	-169.2548
437.000000	94.015	-168.6381
444.000000	94.017	-167.9073
450.000000	94.017	-167.2777
455.000000	94.017	-166.7573
462.000000	94.016	-166.0337
468.000000	94.014	-165.4027
475.000000	94.013	-164.6501
482.000000	94.020	-163.9224
487.000000	94.028	-163.4479
494.000000	94.039	-162.8611
500.000000	94.047	-162.4210
508.000000	94.050	-161.9155
515.000000	94.047	-161.5586
522.000000	94.046	-161.2740
530.000000	94.047	-160.9892
538.000000	94.050	-160.7017
545.000000	94.051	-160.4423
552.000000	94.051	-160.1802
560.000000	94.048	-159.8826
570.000000	94.045	-159.5298
580.000000	94.045	-159.1958
590.000000	94.045	-158.8542
600.000000	94.045	-158.5012
608.000000	94.045	-158.2152
615.000000	94.044	-157.9652
622.000000	94.043	-157.7166
630.000000	94.041	-157.4348
640.000000	94.037	-157.0847
650.000000	94.033	-156.7306
660.000000	94.028	-156.3706
670.000000	94.023	-156.0103
680.000000	94.020	-155.6518
690.000000	94.015	-155.2955
700.000000	94.010	-154.9325
710.000000	94.006	-154.5564
720.000000	94.003	-154.1756
730.000000	94.001	-153.7971
740.000000	93.998	-153.4187
750.000000	93.994	-153.0297
762.000000	93.988	-152.5321
775.000000	93.984	-151.9704
788.000000	93.986	-151.4161
800.000000	93.990	-150.8965
812.000000	93.995	-150.3641
825.000000	94.002	-149.7976
838.000000	94.012	-149.2395
850.000000	94.022	-148.7205
862.000000	94.034	-148.1971
875.000000	94.051	-147.6283
885.000000	94.066	-147.1922
900.000000	94.093	-146.5409
912.000000	94.118	-146.0242
925.000000	94.147	-145.4744
938.000000	94.181	-144.9391
950.000000	94.217	-144.4568
962.000000	94.258	-143.9872
975.000000	94.306	-143.5029
988.000000	94.355	-143.0483
1000.000000	94.400	-142.6504
1015.000000	94.459	-142.1780
1030.000000	94.520	-141.7366
1044.000000	94.578	-141.3552
1060.000000	94.643	-140.9595
1075.000000	94.703	-140.6326
1090.000000	94.763	-140.3488
1106.000000	94.829	-140.0926
1120.000000	94.885	-139.9011
1138.000000	94.953	-139.6859
1150.000000	94.996	-139.5643
1172.000000	95.069	-139.3989
1180.000000	95.093	-139.3537
1206.000000	95.167	-139.2422
1220.000000	95.202	-139.2078
1241.000000	95.247	-139.1980
1250.000000	95.264	-139.2040
1265.000000	95.289	-139.2153
1280.000000	95.312	-139.2197
1315.000000	95.361	-139.2104
1320.000000	95.366	-139.2087
1340.000000	95.382	-139.2055
1360.000000	95.389	-139.2094
1380.000000	95.391	-139.2138
1400.000000	95.389	-139.2208
1430.000000	95.379	-139.2500
1450.000000	95.368	-139.2473
1475.000000	95.350	-139.1768
1500.000000	95.325	-139.0524
1525.000000	95.292	-138.9260
1550.000000	95.257	-138.8014
1575.000000	95.221	-138.6465
1600.000000	95.187	-138.4418
1625.000000	95.148	-138.2016
1650.000000	95.104	-137.9519
1675.000000	95.058	-137.7079
1700.000000	95.014	-137.4703
1725.000000	94.968	-137.2260
1750.000000	94.917	-136.9540
1775.000000	94.866	-136.6471
1800.000000	94.818	-136.3102
1825.000000	94.771	-135.9590
1850.000000	94.725	-135.6017
1875.000000	94.678	-135.2189
1900.000000	94.630	-134.7979
1925.000000	94.583	-134.3574
1950.000000	94.541	-133.9255
1975.000000	94.503	-133.5072
2000.000000	94.468	-133.0891
2030.000000	94.428	-132.5697
2060.000000	94.388	-132.0358
2090.000000	94.349	-131.4854
2120.000000	94.314	-130.9126
2140.000000	94.292	-130.5252
2180.000000	94.251	-129.7737
2200.000000	94.233	-129.4193
2240.000000	94.203	-128.7488
2270.000000	94.180	-128.2673
2300.000000	94.156	-127.8012
2330.000000	94.134	-127.3765
2360.000000	94.114	-127.0098
2400.000000	94.082	-126.5782
2430.000000	94.052	-126.2793
2470.000000	94.002	-125.9259
2500.000000	93.956	-125.7007
2540.000000	93.886	-125.4265
2580.000000	93.806	-125.1362
2620.000000	93.718	-124.8298
2650.000000	93.643	-124.6074
2690.000000	93.529	-124.3339
2720.000000	93.430	-124.1328
2760.000000	93.283	-123.8295
2800.000000	93.117	-123.4213
2850.000000	92.882	-122.6822
2900.000000	92.623	-121.6810
2950.000000	92.358	-120.3931
3000.000000	92.096	-118.7568
3040.000000	91.896	-117.2075
3070.000000	91.758	-115.9247
3110.000000	91.597	-114.0770
3150.000000	91.466	-112.1081
3200.000000	91.349	-109.5619
3250.000000	91.279	-107.0364
3300.000000	91.248	-104.6078
3350.000000	91.249	-102.3036
3400.000000	91.272	-100.1154
3450.000000	91.307	-97.9902
3500.000000	91.344	-95.8271
3550.000000	91.379	-93.4300
3600.000000	91.417	-90.4706
3650.000000	91.469	-86.6940
3700.000000	91.537	-82.1735
3750.000000	91.612	-77.2037
3820.000000	91.720	-69.9108
3870.000000	91.800	-64.6014
3950.000000	91.938	-56.0361
4000.000000	92.026	-50.6525
4060.000000	92.134	-44.1745
4120.000000	92.248	-37.6939
4180.000000	92.369	-31.2101
4250.000000	92.515	-23.5950
4310.000000	92.638	-16.9742
4370.000000	92.761	-10.2310
4440.000000	92.913	-2.1749
4500.000000	93.065	4.9266
4550.000000	93.215	10.9922
4620.000000	93.479	19.6790
4680.000000	93.766	27.2366
4750.000000	94.191	36.0387
4820.000000	94.718	44.6064
4870.000000	95.147	50.4556
4940.000000	95.796	58.1382
5000.000000	96.375	64.1895
5080.000000	97.148	71.4626
5150.000000	97.800	77.1184
5220.000000	98.410	82.1868
5300.000000	99.041	87.3501
5380.000000	99.595	91.9191
5450.000000	100.010	95.4712
5520.000000	100.355	98.6489
5600.000000	100.651	101.8621
5700.000000	100.856	105.2150
5800.000000	100.844	107.6041
5900.000000	100.566	108.6963
6000.000000	100.000	108.6192
6080.000000	99.375	108.4319
6150.000000	98.748	108.7465
6220.000000	98.081	109.7805
6300.000000	97.309	111.9136
6400.000000	96.386	115.8402
6500.000000	95.565	120.8351
6600.000000	94.873	126.5561
6700.000000	94.315	132.7371
6800.000000	93.885	139.1980
6900.000000	93.574	145.8120
7000.000000	93.372	152.4760
7100.000000	93.271	159.1104
7200.000000	93.270	165.6435
7300.000000	93.369	172.0170
7400.000000	93.569	178.1691
7500.000000	93.874	-175.9830
7620.000000	94.377	-169.5183
7750.000000	95.093	-163.4633
7880.000000	95.969	-158.7820
8000.000000	96.875	-156.1337
8120.000000	97.794	-155.6114
8250.000000	98.664	-157.9404
8380.000000	99.230	-163.2900
8500.000000	99.348	-170.1112
8620.000000	99.021	-177.2693
8750.000000	98.197	176.3625
8850.000000	97.301	173.1991
9000.000000	95.694	171.5388
9120.000000	94.315	172.5085
9250.000000	92.836	175.2635
9380.000000	91.436	179.2492
9500.000000	90.239	-176.3302
9620.000000	89.132	-171.4158
9750.000000	88.026	-165.6975
9880.000000	87.002	-159.6766
10000.000000	86.119	-153.9153
10150.000000	85.087	-146.5063
10300.000000	84.121	-138.9001
10440.000000	83.271	-131.6384
10600.000000	82.355	-123.1672
10750.000000	81.548	-115.0868
10900.000000	80.786	-106.9178
11060.000000	80.011	-98.1291
11200.000000	79.360	-90.3433
11380.000000	78.551	-80.1173
11500.000000	78.024	-73.1132
11720.000000	77.087	-59.7163
11800.000000	76.762	-54.6142
12060.000000	75.815	-36.9931
12200.000000	75.426	-26.8564
12410.000000	75.101	-11.1033
12500.000000	75.079	-4.3140
12650.000000	75.206	6.7704
12800.000000	75.518	17.2873
13150.000000	76.701	38.6349
13200.000000	76.899	41.3033
13400.000000	77.731	51.1416
13600.000000	78.630	59.8435
13800.000000	79.627	67.6112
14000.000000	80.784	74.5081
14300.000000	82.949	82.6909
14500.000000	84.652	85.6221
14750.000000	86.783	84.1408
15000.000000	88.414	74.6058
15250.000000	89.024	58.0997
15500.000000	88.392	41.2556
15750.000000	86.745	30.6917
16000.000000	84.597	27.5441
16250.000000	82.488	29.3040
16500.000000	80.815	33.2556
16750.000000	79.742	37.5955
17000.000000	79.261	41.2249
17250.000000	79.309	43.3423
17500.000000	79.823	43.1450
17750.000000	80.704	39.5592
18000.000000	81.760	31.1267
18250.000000	82.699	16.3675
18500.000000	83.201	-5.1776
18750.000000	83.020	-31.8221
19000.000000	82.053	-60.0610
19250.000000	80.361	-86.5166
19500.000000	78.115	-109.0882
19750.000000	75.611	-126.1784
