* More info about this measurement = https://www.achoreviews.com/solospec
*
* Freq(Hz)	SPL(dB)	Phase(degrees)
20.000000	92.529	-147.9388
20.299999	92.505	-148.5631
20.600000	92.487	-149.0999
20.900000	92.478	-149.6051
21.200001	92.474	-150.1357
21.400000	92.472	-150.5186
21.799999	92.460	-151.3389
22.000000	92.448	-151.7589
22.400000	92.412	-152.5657
22.700001	92.380	-153.1102
23.000000	92.350	-153.5970
23.299999	92.326	-154.0481
23.600000	92.309	-154.4905
24.000000	92.296	-155.1036
24.299999	92.289	-155.5939
24.700001	92.280	-156.2820
25.000000	92.273	-156.8119
25.400000	92.260	-157.5248
25.799999	92.244	-158.2388
26.200001	92.223	-158.9445
26.500000	92.204	-159.4555
26.900000	92.173	-160.0921
27.200001	92.148	-160.5255
27.600000	92.116	-161.0449
28.000000	92.088	-161.5183
28.500000	92.060	-162.0904
29.000000	92.034	-162.6728
29.500000	92.003	-163.2608
30.000000	91.966	-163.8341
30.400000	91.933	-164.2746
30.700001	91.907	-164.5941
31.100000	91.871	-165.0061
31.500000	91.834	-165.4028
32.000000	91.788	-165.8844
32.500000	91.745	-166.3722
33.000000	91.703	-166.8924
33.500000	91.656	-167.4425
34.000000	91.601	-167.9789
34.500000	91.542	-168.4482
35.000000	91.491	-168.8399
35.500000	91.454	-169.2026
36.000000	91.431	-169.6052
36.500000	91.413	-170.0788
37.000000	91.391	-170.5964
37.500000	91.362	-171.1039
38.200001	91.318	-171.7320
38.700001	91.289	-172.1263
39.500000	91.254	-172.7304
40.000000	91.236	-173.1206
40.599998	91.212	-173.6115
41.200001	91.182	-174.1140
41.799999	91.145	-174.6008
42.500000	91.096	-175.1192
43.099998	91.053	-175.5131
43.700001	91.013	-175.8634
44.400002	90.977	-176.2408
45.000000	90.956	-176.5878
45.500000	90.942	-176.9315
46.200001	90.917	-177.4979
46.799999	90.880	-178.0086
47.500000	90.823	-178.5511
48.200001	90.758	-179.0026
48.700001	90.712	-179.2711
49.400002	90.653	-179.5887
50.000000	90.614	-179.8435
50.799999	90.576	179.7571
51.500000	90.549	179.3128
52.200001	90.521	178.8069
53.000000	90.487	178.2050
53.799999	90.451	177.6164
54.500000	90.419	177.1513
55.200001	90.389	176.7609
56.000000	90.361	176.3904
57.000000	90.327	175.9954
58.000000	90.281	175.7151
59.000000	90.231	175.5550
60.000000	90.181	175.4009
60.799999	90.135	175.2344
61.500000	90.091	175.0546
62.200001	90.044	174.8435
63.000000	89.990	174.5651
64.000000	89.924	174.1745
65.000000	89.861	173.7798
66.000000	89.808	173.4164
67.000000	89.765	173.0717
68.000000	89.727	172.7338
69.000000	89.687	172.4140
70.000000	89.645	172.1178
71.000000	89.601	171.8251
72.000000	89.555	171.5094
73.000000	89.503	171.1798
74.000000	89.444	170.8847
75.000000	89.388	170.6535
76.199997	89.330	170.4189
77.500000	89.273	170.1582
78.800003	89.214	169.8735
80.000000	89.154	169.6133
81.199997	89.093	169.3747
82.500000	89.031	169.1173
83.800003	88.970	168.8538
85.000000	88.913	168.6338
86.199997	88.860	168.4498
87.500000	88.808	168.2527
88.500000	88.769	168.0814
90.000000	88.708	167.8062
91.199997	88.656	167.6014
92.500000	88.599	167.4109
93.800003	88.544	167.2479
95.000000	88.492	167.1106
96.199997	88.440	166.9804
97.500000	88.383	166.8385
98.800003	88.328	166.6867
100.000000	88.279	166.5425
101.500000	88.220	166.3690
103.000000	88.166	166.2088
104.400002	88.116	166.0740
106.000000	88.060	165.9360
107.500000	88.008	165.8138
109.000000	87.956	165.6932
110.599998	87.900	165.5752
112.000000	87.851	165.4907
113.800003	87.789	165.4008
115.000000	87.748	165.3403
117.199997	87.673	165.2184
118.000000	87.646	165.1750
120.599998	87.559	165.0583
122.000000	87.514	165.0111
124.099998	87.447	164.9545
125.000000	87.418	164.9326
126.500000	87.371	164.8969
128.000000	87.323	164.8632
131.500000	87.214	164.7876
132.000000	87.199	164.7774
134.000000	87.137	164.7415
136.000000	87.078	164.7103
138.000000	87.022	164.6785
140.000000	86.965	164.6559
143.000000	86.880	164.6664
145.000000	86.826	164.6908
147.500000	86.761	164.7165
150.000000	86.695	164.7372
152.500000	86.626	164.7668
155.000000	86.556	164.8095
157.500000	86.489	164.8655
160.000000	86.422	164.9374
162.500000	86.357	165.0216
165.000000	86.292	165.1125
167.500000	86.228	165.2128
170.000000	86.167	165.3276
172.500000	86.108	165.4539
175.000000	86.051	165.5826
177.500000	85.997	165.7112
180.000000	85.944	165.8438
182.500000	85.893	165.9781
185.000000	85.842	166.1081
187.500000	85.790	166.2359
190.000000	85.737	166.3689
192.500000	85.685	166.5097
195.000000	85.634	166.6602
197.500000	85.584	166.8229
200.000000	85.533	166.9897
203.000000	85.472	167.1800
206.000000	85.415	167.3654
209.000000	85.361	167.5656
212.000000	85.311	167.7833
214.000000	85.277	167.9305
218.000000	85.209	168.2132
220.000000	85.175	168.3502
224.000000	85.109	168.6283
227.000000	85.060	168.8455
230.000000	85.013	169.0732
233.000000	84.967	169.3122
236.000000	84.920	169.5600
240.000000	84.860	169.8950
243.000000	84.816	170.1407
247.000000	84.759	170.4558
250.000000	84.717	170.6910
254.000000	84.665	171.0126
258.000000	84.615	171.3368
262.000000	84.565	171.6536
265.000000	84.525	171.8922
269.000000	84.473	172.2260
272.000000	84.436	172.4889
276.000000	84.388	172.8444
280.000000	84.342	173.1994
285.000000	84.289	173.6428
290.000000	84.237	174.0807
295.000000	84.184	174.5071
300.000000	84.131	174.9284
304.000000	84.092	175.2795
307.000000	84.063	175.5517
311.000000	84.026	175.9180
315.000000	83.991	176.2800
320.000000	83.949	176.7162
325.000000	83.908	177.1406
330.000000	83.868	177.5766
335.000000	83.829	178.0282
340.000000	83.790	178.4815
345.000000	83.753	178.9336
350.000000	83.718	179.3862
355.000000	83.682	179.8425
360.000000	83.647	-179.6981
365.000000	83.614	-179.2456
370.000000	83.583	-178.8029
375.000000	83.553	-178.3617
382.000000	83.515	-177.7417
387.000000	83.490	-177.3037
395.000000	83.448	-176.6046
400.000000	83.420	-176.1627
406.000000	83.388	-175.6308
412.000000	83.358	-175.1064
418.000000	83.331	-174.5902
425.000000	83.303	-173.9812
431.000000	83.281	-173.4480
437.000000	83.259	-172.9111
444.000000	83.233	-172.2898
450.000000	83.211	-171.7619
455.000000	83.193	-171.3230
462.000000	83.171	-170.7130
468.000000	83.154	-170.1931
475.000000	83.136	-169.5872
482.000000	83.121	-168.9834
487.000000	83.111	-168.5563
494.000000	83.100	-167.9640
500.000000	83.091	-167.4603
508.000000	83.079	-166.7954
515.000000	83.066	-166.2146
522.000000	83.055	-165.6299
530.000000	83.045	-164.9605
538.000000	83.039	-164.3031
545.000000	83.038	-163.7447
552.000000	83.037	-163.2021
560.000000	83.036	-162.6013
570.000000	83.035	-161.8780
580.000000	83.031	-161.2034
590.000000	83.025	-160.5887
600.000000	83.010	-160.0193
608.000000	82.988	-159.5817
615.000000	82.959	-159.1905
622.000000	82.920	-158.7626
630.000000	82.865	-158.1918
640.000000	82.791	-157.3114
650.000000	82.727	-156.2490
660.000000	82.685	-155.0885
670.000000	82.668	-153.9205
680.000000	82.670	-152.7858
690.000000	82.685	-151.6933
700.000000	82.706	-150.6386
710.000000	82.732	-149.6137
720.000000	82.758	-148.6111
730.000000	82.786	-147.6310
740.000000	82.814	-146.6763
750.000000	82.844	-145.7410
762.000000	82.881	-144.6324
775.000000	82.924	-143.4411
788.000000	82.970	-142.2660
800.000000	83.017	-141.1950
812.000000	83.066	-140.1355
825.000000	83.123	-138.9994
838.000000	83.186	-137.8670
850.000000	83.247	-136.8257
862.000000	83.312	-135.7943
875.000000	83.387	-134.6908
885.000000	83.449	-133.8497
900.000000	83.547	-132.6011
912.000000	83.628	-131.6180
925.000000	83.720	-130.5756
938.000000	83.815	-129.5618
950.000000	83.907	-128.6534
962.000000	84.003	-127.7721
975.000000	84.110	-126.8477
988.000000	84.220	-125.9526
1000.000000	84.324	-125.1520
1015.000000	84.457	-124.1893
1030.000000	84.592	-123.2748
1044.000000	84.720	-122.4673
1060.000000	84.866	-121.5958
1075.000000	85.004	-120.8240
1090.000000	85.143	-120.0914
1106.000000	85.292	-119.3505
1120.000000	85.421	-118.7390
1138.000000	85.585	-118.0063
1150.000000	85.692	-117.5492
1172.000000	85.885	-116.7669
1180.000000	85.953	-116.4989
1206.000000	86.173	-115.6808
1220.000000	86.289	-115.2673
1241.000000	86.458	-114.6781
1250.000000	86.529	-114.4369
1265.000000	86.646	-114.0482
1280.000000	86.761	-113.6759
1315.000000	87.023	-112.8668
1320.000000	87.060	-112.7565
1340.000000	87.204	-112.3261
1360.000000	87.346	-111.9126
1380.000000	87.485	-111.5148
1400.000000	87.622	-111.1319
1430.000000	87.823	-110.5794
1450.000000	87.956	-110.2290
1475.000000	88.120	-109.8202
1500.000000	88.282	-109.4406
1525.000000	88.441	-109.0818
1550.000000	88.598	-108.7436
1575.000000	88.754	-108.4327
1600.000000	88.908	-108.1518
1625.000000	89.061	-107.9002
1650.000000	89.213	-107.6757
1675.000000	89.363	-107.4812
1700.000000	89.511	-107.3205
1725.000000	89.657	-107.1926
1750.000000	89.799	-107.0951
1775.000000	89.940	-107.0269
1800.000000	90.078	-106.9899
1825.000000	90.213	-106.9866
1850.000000	90.345	-107.0181
1875.000000	90.474	-107.0832
1900.000000	90.599	-107.1818
1925.000000	90.718	-107.3145
1950.000000	90.834	-107.4799
1975.000000	90.944	-107.6750
2000.000000	91.050	-107.8990
2030.000000	91.170	-108.2043
2060.000000	91.281	-108.5444
2090.000000	91.383	-108.9152
2120.000000	91.475	-109.3134
2140.000000	91.531	-109.5918
2180.000000	91.631	-110.1724
2200.000000	91.674	-110.4720
2240.000000	91.747	-111.0838
2270.000000	91.790	-111.5471
2300.000000	91.822	-112.0064
2330.000000	91.845	-112.4555
2360.000000	91.858	-112.8900
2400.000000	91.863	-113.4409
2430.000000	91.856	-113.8280
2470.000000	91.835	-114.3016
2500.000000	91.810	-114.6204
2540.000000	91.767	-114.9918
2580.000000	91.714	-115.2976
2620.000000	91.652	-115.5349
2650.000000	91.602	-115.6665
2690.000000	91.530	-115.7792
2720.000000	91.472	-115.8179
2760.000000	91.393	-115.8116
2800.000000	91.311	-115.7408
2850.000000	91.207	-115.5661
2900.000000	91.103	-115.3031
2950.000000	90.999	-114.9595
3000.000000	90.896	-114.5459
3040.000000	90.817	-114.1703
3070.000000	90.759	-113.8657
3110.000000	90.683	-113.4327
3150.000000	90.612	-112.9725
3200.000000	90.527	-112.3662
3250.000000	90.447	-111.7351
3300.000000	90.372	-111.0878
3350.000000	90.302	-110.4342
3400.000000	90.237	-109.7856
3450.000000	90.175	-109.1578
3500.000000	90.114	-108.5688
3550.000000	90.050	-108.0339
3600.000000	89.974	-107.5491
3650.000000	89.875	-107.0427
3700.000000	89.750	-106.3282
3750.000000	89.631	-105.2159
3820.000000	89.582	-103.3529
3870.000000	89.620	-102.4041
3950.000000	89.664	-101.6917
4000.000000	89.654	-101.4595
4060.000000	89.614	-101.2213
4120.000000	89.552	-100.9943
4180.000000	89.475	-100.7817
4250.000000	89.368	-100.5572
4310.000000	89.261	-100.3839
4370.000000	89.138	-100.2199
4440.000000	88.974	-100.0233
4500.000000	88.815	-99.8345
4550.000000	88.669	-99.6537
4620.000000	88.446	-99.3524
4680.000000	88.236	-99.0356
4750.000000	87.974	-98.5755
4820.000000	87.693	-97.9957
4870.000000	87.483	-97.4992
4940.000000	87.177	-96.6817
5000.000000	86.906	-95.8643
5080.000000	86.535	-94.6020
5150.000000	86.206	-93.3315
5220.000000	85.874	-91.9070
5300.000000	85.494	-90.0973
5380.000000	85.118	-88.1034
5450.000000	84.794	-86.2162
5520.000000	84.477	-84.2048
5600.000000	84.125	-81.7665
5700.000000	83.702	-78.5264
5800.000000	83.299	-75.0941
5900.000000	82.920	-71.4961
6000.000000	82.563	-67.7518
6080.000000	82.294	-64.6582
6150.000000	82.071	-61.8814
6220.000000	81.859	-59.0410
6300.000000	81.632	-55.7212
6400.000000	81.373	-51.4634
6500.000000	81.144	-47.0831
6600.000000	80.949	-42.5813
6700.000000	80.790	-37.9694
6800.000000	80.676	-33.2684
6900.000000	80.609	-28.5006
7000.000000	80.593	-23.6993
7100.000000	80.632	-18.9115
7200.000000	80.728	-14.1945
7300.000000	80.878	-9.6051
7400.000000	81.079	-5.1819
7500.000000	81.334	-0.9382
7620.000000	81.717	3.8898
7750.000000	82.229	8.7122
7880.000000	82.844	12.9802
8000.000000	83.504	16.2724
8120.000000	84.247	18.7511
8250.000000	85.125	20.2439
8380.000000	86.028	20.1420
8500.000000	86.809	18.3329
8620.000000	87.457	14.7547
8750.000000	87.911	9.1112
8850.000000	88.036	3.9671
9000.000000	87.826	-3.8693
9120.000000	87.343	-9.2511
9250.000000	86.579	-13.4780
9380.000000	85.662	-15.8276
9500.000000	84.760	-16.4581
9620.000000	83.869	-15.8714
9750.000000	82.961	-14.1790
9880.000000	82.144	-11.6824
10000.000000	81.482	-8.8715
10150.000000	80.785	-4.8938
10300.000000	80.232	-0.5976
10440.000000	79.844	3.5359
10600.000000	79.546	8.2215
10750.000000	79.396	12.4618
10900.000000	79.368	16.4927
11060.000000	79.483	20.4250
11200.000000	79.712	23.3594
11380.000000	80.171	26.0853
11500.000000	80.559	27.0283
11720.000000	81.352	26.3933
11800.000000	81.637	25.2755
12060.000000	82.358	18.0618
12200.000000	82.513	12.1329
12410.000000	82.307	1.8127
12500.000000	82.045	-2.6333
12650.000000	81.393	-9.4182
12800.000000	80.515	-14.9490
13150.000000	77.974	-22.2600
13200.000000	77.591	-22.7482
13400.000000	76.092	-23.7102
13600.000000	74.702	-23.5491
13800.000000	73.468	-22.7644
14000.000000	72.403	-21.7183
14300.000000	71.112	-20.2471
14500.000000	70.438	-19.6260
14750.000000	69.780	-19.4970
15000.000000	69.309	-20.3389
15250.000000	69.004	-22.4165
15500.000000	68.853	-25.9892
15750.000000	68.833	-31.4016
16000.000000	68.868	-39.0871
16250.000000	68.770	-49.1033
16500.000000	68.316	-59.5133
16750.000000	67.668	-67.3441
17000.000000	67.465	-73.9427
17250.000000	67.829	-83.5948
17500.000000	68.302	-97.8328
17750.000000	68.594	-115.6516
18000.000000	68.665	-135.7301
18250.000000	68.592	-157.3571
18500.000000	68.487	179.4416
18750.000000	68.435	154.0751
19000.000000	68.450	125.8788
19250.000000	68.494	94.9020
19500.000000	68.521	62.9697
19750.000000	68.516	34.7065
