* Freq(Hz)	SPL(dB)	Phase(degrees)
20.299999	98.398	3.3949
20.600000	98.437	3.3485
20.900000	98.472	3.3006
21.200001	98.489	3.2574
21.400000	98.497	3.2320
21.799999	98.509	3.1885
22.000000	98.515	3.1654
22.400000	98.534	3.1090
22.700001	98.557	3.0650
23.000000	98.574	3.0150
23.299999	98.585	2.9501
23.600000	98.598	2.8788
24.000000	98.614	2.7944
24.299999	98.621	2.7433
24.700001	98.628	2.6885
25.000000	98.634	2.6516
25.400000	98.639	2.6023
25.799999	98.643	2.5514
26.200001	98.644	2.4865
26.500000	98.642	2.4248
26.900000	98.637	2.3279
27.200001	98.629	2.2412
27.600000	98.616	2.1088
28.000000	98.601	1.9743
28.500000	98.582	1.8228
29.000000	98.576	1.6801
29.500000	98.591	1.5386
30.000000	98.623	1.4314
30.400000	98.652	1.3801
30.700001	98.674	1.3565
31.100000	98.707	1.3316
31.500000	98.736	1.2987
32.000000	98.758	1.2231
32.500000	98.762	1.0993
33.000000	98.756	0.9638
33.500000	98.747	0.8595
34.000000	98.738	0.7901
34.500000	98.733	0.7462
35.000000	98.735	0.7281
35.500000	98.745	0.7285
36.000000	98.758	0.7324
36.500000	98.770	0.7276
37.000000	98.782	0.7086
37.500000	98.794	0.6740
38.200001	98.807	0.5884
38.700001	98.805	0.5012
39.500000	98.782	0.3549
40.000000	98.769	0.2711
40.599998	98.764	0.1812
41.200001	98.768	0.0993
41.799999	98.780	0.0226
42.500000	98.802	-0.0635
43.099998	98.823	-0.1464
43.700001	98.836	-0.2480
44.400002	98.835	-0.3823
45.000000	98.831	-0.4890
45.500000	98.830	-0.5577
46.200001	98.835	-0.6338
46.799999	98.844	-0.6978
47.500000	98.849	-0.7809
48.200001	98.845	-0.8606
48.700001	98.836	-0.9081
49.400002	98.818	-0.9692
50.000000	98.807	-1.0318
50.799999	98.813	-1.1457
51.500000	98.844	-1.2627
52.200001	98.881	-1.3900
53.000000	98.886	-1.5502
53.799999	98.853	-1.7099
54.500000	98.831	-1.8153
55.200001	98.823	-1.8736
56.000000	98.821	-1.9003
57.000000	98.821	-1.9344
58.000000	98.818	-2.0029
59.000000	98.817	-2.0731
60.000000	98.823	-2.1700
60.799999	98.822	-2.2936
61.500000	98.815	-2.4123
62.200001	98.808	-2.5160
63.000000	98.806	-2.6028
64.000000	98.810	-2.6673
65.000000	98.815	-2.7243
66.000000	98.821	-2.8210
67.000000	98.826	-2.9581
68.000000	98.822	-3.1051
69.000000	98.818	-3.2399
70.000000	98.825	-3.3554
71.000000	98.822	-3.4557
72.000000	98.803	-3.5578
73.000000	98.794	-3.6668
74.000000	98.800	-3.7722
75.000000	98.811	-3.8728
76.199997	98.819	-4.0031
77.500000	98.825	-4.1674
78.800003	98.826	-4.3502
80.000000	98.816	-4.5265
81.199997	98.802	-4.6813
82.500000	98.787	-4.7985
83.800003	98.780	-4.8822
85.000000	98.780	-4.9558
86.199997	98.780	-5.0350
87.500000	98.780	-5.1332
88.500000	98.781	-5.2201
90.000000	98.777	-5.3544
91.199997	98.772	-5.4518
92.500000	98.767	-5.5599
93.800003	98.766	-5.6821
95.000000	98.767	-5.8011
96.199997	98.766	-5.9290
97.500000	98.763	-6.0774
98.800003	98.755	-6.2242
100.000000	98.742	-6.3499
101.500000	98.722	-6.4844
103.000000	98.710	-6.6008
104.400002	98.708	-6.7208
106.000000	98.706	-6.8778
107.500000	98.697	-7.0217
109.000000	98.678	-7.1475
110.599998	98.655	-7.2560
112.000000	98.644	-7.3432
113.800003	98.642	-7.4823
115.000000	98.642	-7.6039
117.199997	98.634	-7.8715
118.000000	98.627	-7.9691
120.599998	98.597	-8.2320
122.000000	98.581	-8.3371
124.099998	98.565	-8.4587
125.000000	98.562	-8.5043
126.500000	98.560	-8.5849
128.000000	98.553	-8.6822
131.500000	98.514	-8.9486
132.000000	98.509	-8.9838
134.000000	98.494	-9.1185
136.000000	98.483	-9.2591
138.000000	98.469	-9.4041
140.000000	98.450	-9.5466
143.000000	98.418	-9.7844
145.000000	98.401	-9.9520
147.500000	98.374	-10.1305
150.000000	98.341	-10.2664
152.500000	98.329	-10.4023
155.000000	98.342	-10.5634
157.500000	98.349	-10.7151
160.000000	98.336	-10.8523
162.500000	98.317	-11.0062
165.000000	98.302	-11.1728
167.500000	98.281	-11.3256
170.000000	98.251	-11.4536
172.500000	98.216	-11.5723
175.000000	98.175	-11.6991
177.500000	98.128	-11.8301
180.000000	98.084	-11.9510
182.500000	98.050	-12.0595
185.000000	98.031	-12.1632
187.500000	98.016	-12.2711
190.000000	97.995	-12.3926
192.500000	97.968	-12.5162
195.000000	97.944	-12.6205
197.500000	97.919	-12.7062
200.000000	97.887	-12.7869
203.000000	97.839	-12.8826
206.000000	97.799	-12.9734
209.000000	97.766	-13.0534
212.000000	97.730	-13.1273
214.000000	97.705	-13.1758
218.000000	97.660	-13.2607
220.000000	97.639	-13.3011
224.000000	97.596	-13.3836
227.000000	97.563	-13.4218
230.000000	97.534	-13.4318
233.000000	97.511	-13.4369
236.000000	97.489	-13.4506
240.000000	97.454	-13.4611
243.000000	97.429	-13.4599
247.000000	97.406	-13.4764
250.000000	97.394	-13.5166
254.000000	97.375	-13.6092
258.000000	97.354	-13.7346
262.000000	97.328	-13.8872
265.000000	97.306	-14.0108
269.000000	97.271	-14.1777
272.000000	97.240	-14.3027
276.000000	97.195	-14.4607
280.000000	97.147	-14.5955
285.000000	97.091	-14.7414
290.000000	97.037	-14.8797
295.000000	96.975	-14.9973
300.000000	96.912	-15.0701
304.000000	96.865	-15.1120
307.000000	96.832	-15.1464
311.000000	96.791	-15.1943
315.000000	96.751	-15.2354
320.000000	96.700	-15.2759
325.000000	96.646	-15.3100
330.000000	96.585	-15.3294
335.000000	96.520	-15.3268
340.000000	96.454	-15.3171
345.000000	96.390	-15.3080
350.000000	96.335	-15.2880
355.000000	96.291	-15.2453
360.000000	96.247	-15.1872
365.000000	96.193	-15.1272
370.000000	96.133	-15.0669
375.000000	96.070	-15.0079
382.000000	95.993	-14.9191
387.000000	95.944	-14.8337
395.000000	95.864	-14.6499
400.000000	95.810	-14.5233
406.000000	95.747	-14.3710
412.000000	95.686	-14.2016
418.000000	95.627	-14.0135
425.000000	95.565	-13.7911
431.000000	95.518	-13.5983
437.000000	95.474	-13.4097
444.000000	95.423	-13.2105
450.000000	95.383	-13.0549
455.000000	95.353	-12.9271
462.000000	95.311	-12.7515
468.000000	95.268	-12.6114
475.000000	95.219	-12.4568
482.000000	95.174	-12.3057
487.000000	95.138	-12.2009
494.000000	95.082	-12.0571
500.000000	95.031	-11.9221
508.000000	94.961	-11.7101
515.000000	94.895	-11.5057
522.000000	94.830	-11.2978
530.000000	94.766	-11.0573
538.000000	94.707	-10.8018
545.000000	94.654	-10.5654
552.000000	94.599	-10.3154
560.000000	94.537	-10.0089
570.000000	94.465	-9.5956
580.000000	94.397	-9.1608
590.000000	94.330	-8.7201
600.000000	94.257	-8.2605
608.000000	94.198	-7.8751
615.000000	94.148	-7.5308
622.000000	94.103	-7.1860
630.000000	94.055	-6.7906
640.000000	93.996	-6.2881
650.000000	93.930	-5.7685
660.000000	93.863	-5.2354
670.000000	93.801	-4.6910
680.000000	93.750	-4.1246
690.000000	93.705	-3.5305
700.000000	93.662	-2.9260
710.000000	93.624	-2.3204
720.000000	93.593	-1.7084
730.000000	93.561	-1.0889
740.000000	93.520	-0.4567
750.000000	93.480	0.1921
762.000000	93.444	0.9879
775.000000	93.410	1.8623
788.000000	93.380	2.7447
800.000000	93.361	3.5656
812.000000	93.346	4.4002
825.000000	93.331	5.3078
838.000000	93.319	6.2163
850.000000	93.308	7.0592
862.000000	93.303	7.8992
875.000000	93.302	8.8066
885.000000	93.306	9.4998
900.000000	93.318	10.5302
912.000000	93.334	11.3465
925.000000	93.357	12.2241
938.000000	93.380	13.0928
950.000000	93.404	13.8818
962.000000	93.430	14.6613
975.000000	93.463	15.5080
988.000000	93.497	16.3317
1000.000000	93.530	17.0370
1015.000000	93.580	17.8562
1030.000000	93.635	18.6205
1044.000000	93.686	19.2909
1060.000000	93.746	20.0395
1075.000000	93.806	20.7265
1090.000000	93.865	21.3837
1106.000000	93.924	22.0393
1120.000000	93.978	22.5703
1138.000000	94.053	23.1982
1150.000000	94.102	23.5908
1172.000000	94.187	24.2688
1180.000000	94.215	24.5000
1206.000000	94.300	25.2034
1220.000000	94.343	25.5732
1241.000000	94.408	26.1368
1250.000000	94.436	26.3809
1265.000000	94.483	26.7818
1280.000000	94.526	27.1704
1315.000000	94.613	28.0818
1320.000000	94.626	28.2168
1340.000000	94.678	28.7703
1360.000000	94.735	29.3498
1380.000000	94.795	29.9496
1400.000000	94.855	30.5565
1430.000000	94.958	31.4905
1450.000000	95.040	32.1257
1475.000000	95.148	32.8979
1500.000000	95.253	33.6254
1525.000000	95.358	34.2990
1550.000000	95.462	34.9142
1575.000000	95.562	35.4833
1600.000000	95.662	36.0312
1625.000000	95.781	36.5775
1650.000000	95.920	37.1312
1675.000000	96.063	37.6992
1700.000000	96.206	38.2821
1725.000000	96.344	38.8783
1750.000000	96.477	39.4994
1775.000000	96.616	40.1407
1800.000000	96.760	40.7870
1825.000000	96.901	41.4283
1850.000000	97.042	42.0624
1875.000000	97.190	42.6818
1900.000000	97.350	43.2770
1925.000000	97.519	43.8487
1950.000000	97.697	44.4004
1975.000000	97.881	44.9263
2000.000000	98.071	45.4122
2030.000000	98.314	45.9243
2060.000000	98.575	46.3648
2090.000000	98.848	46.7243
2120.000000	99.135	46.9756
2140.000000	99.333	47.0841
2180.000000	99.740	47.1497
2200.000000	99.950	47.0977
2240.000000	100.386	46.7961
2270.000000	100.723	46.3754
2300.000000	101.065	45.7701
2330.000000	101.410	44.9654
2360.000000	101.755	43.9395
2400.000000	102.208	42.2027
2430.000000	102.537	40.6052
2470.000000	102.945	38.0653
2500.000000	103.220	35.8515
2540.000000	103.537	32.5197
2580.000000	103.781	28.8259
2620.000000	103.934	24.8842
2650.000000	103.984	21.8390
2690.000000	103.964	17.7843
2720.000000	103.884	14.8276
2760.000000	103.690	11.0937
2800.000000	103.415	7.6924
2850.000000	102.998	4.0163
2900.000000	102.522	1.0172
2950.000000	102.008	-1.3061
3000.000000	101.482	-3.0026
3040.000000	101.062	-3.9564
3070.000000	100.748	-4.4577
3110.000000	100.336	-4.8744
3150.000000	99.936	-5.0307
3200.000000	99.457	-4.9033
3250.000000	99.007	-4.4648
3300.000000	98.588	-3.7694
3350.000000	98.199	-2.8564
3400.000000	97.837	-1.7561
3450.000000	97.501	-0.5002
3500.000000	97.189	0.8905
3550.000000	96.904	2.4008
3600.000000	96.647	4.0106
3650.000000	96.422	5.6968
3700.000000	96.228	7.4479
3750.000000	96.065	9.2477
3820.000000	95.890	11.8372
3870.000000	95.800	13.7285
3950.000000	95.727	16.7931
4000.000000	95.722	18.7139
4060.000000	95.744	21.0203
4120.000000	95.795	23.3159
4180.000000	95.869	25.5695
4250.000000	95.986	28.1281
4310.000000	96.113	30.2416
4370.000000	96.266	32.2625
4440.000000	96.484	34.4812
4500.000000	96.706	36.2404
4550.000000	96.918	37.5742
4620.000000	97.263	39.1816
4680.000000	97.607	40.2616
4750.000000	98.061	41.1009
4820.000000	98.567	41.3840
4870.000000	98.951	41.1701
4940.000000	99.509	40.1662
5000.000000	99.988	38.5443
5080.000000	100.586	35.1467
5150.000000	101.009	30.9857
5220.000000	101.278	25.8553
5300.000000	101.334	19.2651
5380.000000	101.104	12.6412
5450.000000	100.688	7.4214
5520.000000	100.110	3.1129
5600.000000	99.324	-0.5165
5700.000000	98.270	-3.1696
5800.000000	97.225	-4.0634
5900.000000	96.238	-3.5970
6000.000000	95.342	-2.0843
6080.000000	94.694	-0.2717
6150.000000	94.173	1.6756
6220.000000	93.697	3.9033
6300.000000	93.211	6.7300
6400.000000	92.692	10.5721
6500.000000	92.281	14.6262
6600.000000	91.979	18.7846
6700.000000	91.779	22.9581
6800.000000	91.674	27.0652
6900.000000	91.662	31.0323
7000.000000	91.741	34.8001
7100.000000	91.910	38.3236
7200.000000	92.181	41.5505
7300.000000	92.567	44.3843
7400.000000	93.077	46.6641
7500.000000	93.724	48.1552
7620.000000	94.681	48.4496
7750.000000	95.853	46.1162
7880.000000	96.916	40.1836
8000.000000	97.492	31.6149
8120.000000	97.453	21.6313
8250.000000	96.674	11.9732
8380.000000	95.336	5.5472
8500.000000	93.875	2.7833
8620.000000	92.404	2.4944
8750.000000	90.931	4.2164
8850.000000	89.897	6.7095
9000.000000	88.542	12.5744
9120.000000	87.865	18.0323
9250.000000	87.344	21.8516
9380.000000	86.694	25.6743
9500.000000	86.143	29.9699
9620.000000	85.715	34.5238
9750.000000	85.386	39.4302
9880.000000	85.183	44.1490
10000.000000	85.086	48.2171
10150.000000	85.068	52.7464
10300.000000	85.154	56.4658
10440.000000	85.294	59.0201
10600.000000	85.465	60.6625
10750.000000	85.576	60.8910
10900.000000	85.538	60.0002
11060.000000	85.274	58.2985
11200.000000	84.842	56.7678
11380.000000	84.019	55.6220
11500.000000	83.348	55.7451
11720.000000	81.983	58.1027
11800.000000	81.475	59.6168
12060.000000	79.932	66.5510
12200.000000	79.206	71.2815
12410.000000	78.252	79.3045
12500.000000	77.889	83.0136
12650.000000	77.354	89.4800
12800.000000	76.932	96.2319
13150.000000	76.365	112.7012
13200.000000	76.328	115.0976
13400.000000	76.299	124.7112
13600.000000	76.454	134.2833
13800.000000	76.805	143.6695
14000.000000	77.414	152.6856
14300.000000	78.934	165.0819
14500.000000	80.396	172.0763
14750.000000	82.746	178.0372
15000.000000	85.513	178.4181
15250.000000	88.065	169.8742
15500.000000	89.566	152.4442
15750.000000	89.767	133.0583
16000.000000	89.254	116.9739
16250.000000	88.528	101.6801
16500.000000	87.339	84.4100
16750.000000	85.184	68.6947
17000.000000	82.080	59.8790
17250.000000	78.556	58.5105
17500.000000	75.190	62.0064
17750.000000	72.256	67.9367
18000.000000	69.679	74.7631
18250.000000	67.275	81.6956
18500.000000	64.884	88.5344
18750.000000	62.315	95.6984
19000.000000	59.385	104.6200
19250.000000	55.879	119.4969
19500.000000	51.587	152.9781
19750.000000	47.935	-143.8937
20000.000000	47.972	-92.6850
