* Freq(Hz)	SPL(dB)	Phase(degrees)
10.000000	97.325	-83.9978
10.150000	97.380	-84.4663
10.300000	97.446	-85.1557
10.440000	97.546	-86.0722
10.600000	97.663	-87.1706
10.750000	97.751	-88.0258
10.900000	97.830	-88.8141
11.060000	97.918	-89.6497
11.200000	97.996	-90.3707
11.380000	98.095	-91.2946
11.500000	98.160	-91.9185
11.720000	98.276	-93.0434
11.800000	98.317	-93.4355
12.060000	98.447	-94.6679
12.200000	98.518	-95.3181
12.410000	98.627	-96.2737
12.500000	98.674	-96.6764
12.650000	98.754	-97.3377
12.800000	98.834	-97.9896
13.150000	99.014	-99.4811
13.200000	99.039	-99.6916
13.400000	99.131	-100.5277
13.600000	99.221	-101.3518
13.800000	99.310	-102.1631
14.000000	99.400	-102.9595
14.300000	99.536	-104.1247
14.500000	99.627	-104.8799
14.750000	99.738	-105.8027
15.000000	99.847	-106.7044
15.250000	99.949	-107.5925
15.500000	100.051	-108.4727
15.750000	100.151	-109.3479
16.000000	100.249	-110.2207
16.250000	100.342	-111.0868
16.500000	100.430	-111.9428
16.750000	100.514	-112.7831
17.000000	100.597	-113.6026
17.250000	100.677	-114.4009
17.500000	100.757	-115.1774
17.750000	100.835	-115.9371
18.000000	100.912	-116.6835
18.250000	100.986	-117.4206
18.500000	101.058	-118.1520
18.750000	101.131	-118.8784
19.000000	101.206	-119.6004
19.250000	101.280	-120.3176
19.500000	101.350	-121.0302
19.750000	101.416	-121.7381
20.000000	101.477	-122.4417
20.299999	101.548	-123.2799
20.600000	101.617	-124.1096
20.900000	101.684	-124.9280
21.200001	101.747	-125.7318
21.400000	101.787	-126.2588
21.799999	101.868	-127.2946
22.000000	101.911	-127.8060
22.400000	102.000	-128.8227
22.700001	102.070	-129.5844
23.000000	102.138	-130.3461
23.299999	102.203	-131.1045
23.600000	102.265	-131.8555
24.000000	102.342	-132.8378
24.299999	102.394	-133.5544
24.700001	102.456	-134.4733
25.000000	102.499	-135.1268
25.400000	102.555	-135.9417
25.799999	102.613	-136.6961
26.200001	102.678	-137.4216
26.500000	102.731	-137.9792
26.900000	102.806	-138.7789
27.200001	102.860	-139.4323
27.600000	102.922	-140.3577
28.000000	102.963	-141.2868
28.500000	102.991	-142.3535
29.000000	103.021	-143.2752
29.500000	103.076	-144.1252
30.000000	103.150	-145.0222
30.400000	103.208	-145.8067
30.700001	103.246	-146.4207
31.100000	103.287	-147.2339
31.500000	103.320	-148.0073
32.000000	103.351	-148.9021
32.500000	103.380	-149.7452
33.000000	103.410	-150.5777
33.500000	103.443	-151.4132
34.000000	103.476	-152.2455
34.500000	103.508	-153.0710
35.000000	103.542	-153.8944
35.500000	103.578	-154.7161
36.000000	103.611	-155.5260
36.500000	103.640	-156.3134
37.000000	103.667	-157.0789
37.500000	103.693	-157.8324
38.200001	103.722	-158.8810
38.700001	103.731	-159.6230
39.500000	103.728	-160.7874
40.000000	103.727	-161.5045
40.599998	103.730	-162.3604
41.200001	103.739	-163.2079
41.799999	103.752	-164.0379
42.500000	103.771	-164.9802
43.099998	103.789	-165.7733
43.700001	103.798	-166.5588
44.400002	103.798	-167.4608
45.000000	103.795	-168.2163
45.500000	103.794	-168.8371
46.200001	103.797	-169.7011
46.799999	103.799	-170.4359
47.500000	103.795	-171.2739
48.200001	103.783	-172.0905
48.700001	103.768	-172.6678
49.400002	103.739	-173.4719
50.000000	103.715	-174.1505
50.799999	103.699	-175.0315
51.500000	103.708	-175.7881
52.200001	103.721	-176.5386
53.000000	103.702	-177.3825
53.799999	103.656	-178.2040
54.500000	103.624	-178.9109
55.200001	103.605	-179.6118
56.000000	103.585	179.5992
57.000000	103.550	178.6342
58.000000	103.508	177.6879
59.000000	103.463	176.7685
60.000000	103.418	175.8721
60.799999	103.377	175.1688
61.500000	103.340	174.5663
62.200001	103.305	173.9727
63.000000	103.272	173.3001
64.000000	103.232	172.4735
65.000000	103.184	171.6767
66.000000	103.133	170.9063
67.000000	103.082	170.1497
68.000000	103.024	169.4023
69.000000	102.967	168.6715
70.000000	102.917	167.9622
71.000000	102.856	167.2679
72.000000	102.779	166.5880
73.000000	102.708	165.9236
74.000000	102.650	165.2731
75.000000	102.595	164.6416
76.199997	102.521	163.9069
77.500000	102.438	163.1324
78.800003	102.352	162.3797
80.000000	102.266	161.7095
81.199997	102.179	161.0603
82.500000	102.084	160.3748
83.800003	101.990	159.7179
85.000000	101.907	159.1310
86.199997	101.822	158.5546
87.500000	101.728	157.9511
88.500000	101.656	157.4992
90.000000	101.543	156.8433
91.199997	101.449	156.3497
92.500000	101.347	155.8381
93.800003	101.248	155.3448
95.000000	101.158	154.9056
96.199997	101.066	154.4834
97.500000	100.966	154.0411
98.800003	100.865	153.6125
100.000000	100.767	153.2353
101.500000	100.642	152.7888
103.000000	100.521	152.3604
104.400002	100.413	151.9747
106.000000	100.292	151.5604
107.500000	100.176	151.2006
109.000000	100.053	150.8633
110.599998	99.918	150.5308
112.000000	99.803	150.2657
113.800003	99.661	149.9547
115.000000	99.568	149.7619
117.199997	99.393	149.4290
118.000000	99.330	149.3145
120.599998	99.122	148.9892
122.000000	99.012	148.8475
124.099998	98.852	148.6496
125.000000	98.785	148.5721
126.500000	98.674	148.4594
128.000000	98.559	148.3669
131.500000	98.279	148.2378
132.000000	98.240	148.2270
134.000000	98.088	148.2014
136.000000	97.940	148.2016
138.000000	97.790	148.2279
140.000000	97.640	148.2814
143.000000	97.419	148.4130
145.000000	97.281	148.5346
147.500000	97.108	148.7226
150.000000	96.929	148.9424
152.500000	96.766	149.2002
155.000000	96.631	149.5038
157.500000	96.497	149.8423
160.000000	96.347	150.2077
162.500000	96.194	150.5973
165.000000	96.052	151.0137
167.500000	95.913	151.4578
170.000000	95.768	151.9295
172.500000	95.618	152.4324
175.000000	95.466	152.9628
177.500000	95.314	153.5056
180.000000	95.166	154.0583
182.500000	95.033	154.6359
185.000000	94.916	155.2396
187.500000	94.807	155.8661
190.000000	94.697	156.5082
192.500000	94.590	157.1595
195.000000	94.493	157.8185
197.500000	94.401	158.4817
200.000000	94.304	159.1551
203.000000	94.184	159.9785
206.000000	94.076	160.8056
209.000000	93.978	161.6375
212.000000	93.884	162.4786
214.000000	93.824	163.0420
218.000000	93.714	164.1721
220.000000	93.663	164.7331
224.000000	93.567	165.8453
227.000000	93.502	166.6761
230.000000	93.445	167.5054
233.000000	93.394	168.3288
236.000000	93.344	169.1422
240.000000	93.277	170.2118
243.000000	93.228	171.0012
247.000000	93.172	172.0468
250.000000	93.136	172.8287
254.000000	93.090	173.8553
258.000000	93.050	174.8553
262.000000	93.014	175.8317
265.000000	92.990	176.5539
269.000000	92.958	177.5009
272.000000	92.936	178.1938
276.000000	92.912	179.0977
280.000000	92.892	179.9845
285.000000	92.876	-178.9302
290.000000	92.864	-177.8770
295.000000	92.848	-176.8528
300.000000	92.830	-175.8455
304.000000	92.817	-175.0506
307.000000	92.811	-174.4648
311.000000	92.808	-173.7023
315.000000	92.809	-172.9587
320.000000	92.811	-172.0498
325.000000	92.814	-171.1569
330.000000	92.812	-170.2791
335.000000	92.804	-169.4212
340.000000	92.793	-168.5787
345.000000	92.785	-167.7544
350.000000	92.789	-166.9485
355.000000	92.805	-166.1491
360.000000	92.821	-165.3571
365.000000	92.829	-164.5790
370.000000	92.831	-163.8155
375.000000	92.830	-163.0679
382.000000	92.839	-162.0475
387.000000	92.855	-161.3316
395.000000	92.877	-160.2089
400.000000	92.885	-159.5284
406.000000	92.894	-158.7354
412.000000	92.904	-157.9663
418.000000	92.913	-157.2175
425.000000	92.925	-156.3605
431.000000	92.937	-155.6413
437.000000	92.947	-154.9373
444.000000	92.955	-154.1364
450.000000	92.962	-153.4536
455.000000	92.970	-152.8827
462.000000	92.977	-152.0891
468.000000	92.978	-151.4118
475.000000	92.980	-150.6243
482.000000	92.985	-149.8396
487.000000	92.985	-149.2768
494.000000	92.981	-148.4887
500.000000	92.979	-147.8139
508.000000	92.975	-146.9168
515.000000	92.966	-146.1329
522.000000	92.959	-145.3441
530.000000	92.956	-144.4383
538.000000	92.957	-143.5325
545.000000	92.956	-142.7411
552.000000	92.954	-141.9490
560.000000	92.953	-141.0424
570.000000	92.954	-139.9063
580.000000	92.956	-138.7615
590.000000	92.955	-137.6136
600.000000	92.950	-136.4626
608.000000	92.945	-135.5413
615.000000	92.939	-134.7333
622.000000	92.934	-133.9212
630.000000	92.933	-132.9882
640.000000	92.934	-131.8154
650.000000	92.929	-130.6402
660.000000	92.921	-129.4594
670.000000	92.915	-128.2704
680.000000	92.917	-127.0755
690.000000	92.926	-125.8754
700.000000	92.936	-124.6686
710.000000	92.950	-123.4502
720.000000	92.967	-122.2255
730.000000	92.981	-120.9945
740.000000	92.986	-119.7571
750.000000	92.994	-118.5203
762.000000	93.013	-117.0288
775.000000	93.036	-115.4003
788.000000	93.059	-113.7654
800.000000	93.087	-112.2551
812.000000	93.118	-110.7420
825.000000	93.156	-109.0958
838.000000	93.194	-107.4479
850.000000	93.228	-105.9279
862.000000	93.265	-104.4071
875.000000	93.310	-102.7623
885.000000	93.347	-101.5014
900.000000	93.408	-99.6202
912.000000	93.463	-98.1271
925.000000	93.528	-96.5239
938.000000	93.593	-94.9380
950.000000	93.654	-93.4904
962.000000	93.715	-92.0592
975.000000	93.784	-90.5331
988.000000	93.854	-89.0350
1000.000000	93.921	-87.6758
1015.000000	94.008	-86.0107
1030.000000	94.094	-84.3820
1044.000000	94.172	-82.8947
1060.000000	94.263	-81.2396
1075.000000	94.351	-79.7268
1090.000000	94.439	-78.2483
1106.000000	94.529	-76.7077
1120.000000	94.610	-75.3880
1138.000000	94.717	-73.7261
1150.000000	94.786	-72.6395
1172.000000	94.907	-70.6826
1180.000000	94.951	-69.9800
1206.000000	95.087	-67.7258
1220.000000	95.160	-66.5294
1241.000000	95.270	-64.7549
1250.000000	95.317	-64.0001
1265.000000	95.395	-62.7458
1280.000000	95.472	-61.4999
1315.000000	95.646	-58.7310
1320.000000	95.671	-58.3575
1340.000000	95.773	-56.9202
1360.000000	95.879	-55.5760
1380.000000	95.983	-54.3163
1400.000000	96.085	-53.1088
1430.000000	96.243	-51.3888
1450.000000	96.350	-50.3415
1475.000000	96.468	-49.1467
1500.000000	96.547	-48.0040
1525.000000	96.594	-46.7726
1550.000000	96.631	-45.3567
1575.000000	96.681	-43.8066
1600.000000	96.757	-42.2772
1625.000000	96.868	-40.9128
1650.000000	96.985	-39.7619
1675.000000	97.061	-38.7151
1700.000000	97.079	-37.4664
1725.000000	97.069	-35.7005
1750.000000	97.098	-33.4610
1775.000000	97.202	-31.1194
1800.000000	97.357	-28.9656
1825.000000	97.523	-27.0573
1850.000000	97.684	-25.3416
1875.000000	97.840	-23.7561
1900.000000	97.995	-22.2551
1925.000000	98.149	-20.8127
1950.000000	98.302	-19.4148
1975.000000	98.452	-18.0519
2000.000000	98.598	-16.7166
2030.000000	98.774	-15.1461
2060.000000	98.952	-13.6073
2090.000000	99.131	-12.0990
2120.000000	99.313	-10.6261
2140.000000	99.435	-9.6630
2180.000000	99.682	-7.7883
2200.000000	99.807	-6.8796
2240.000000	100.063	-5.1198
2270.000000	100.256	-3.8566
2300.000000	100.449	-2.6443
2330.000000	100.645	-1.4902
2360.000000	100.843	-0.4006
2400.000000	101.108	0.9487
2430.000000	101.309	1.8791
2470.000000	101.575	3.0030
2500.000000	101.771	3.7543
2540.000000	102.030	4.6321
2580.000000	102.283	5.3603
2620.000000	102.522	5.9388
2650.000000	102.690	6.2786
2690.000000	102.899	6.6183
2720.000000	103.042	6.7998
2760.000000	103.202	6.9589
2800.000000	103.334	7.0465
2850.000000	103.477	7.1011
2900.000000	103.584	7.1448
2950.000000	103.651	7.2115
3000.000000	103.692	7.3198
3040.000000	103.706	7.4422
3070.000000	103.703	7.5577
3110.000000	103.685	7.7483
3150.000000	103.653	7.9830
3200.000000	103.595	8.3382
3250.000000	103.522	8.7526
3300.000000	103.434	9.2187
3350.000000	103.327	9.7467
3400.000000	103.198	10.3652
3450.000000	103.047	11.1014
3500.000000	102.877	11.9709
3550.000000	102.696	12.9817
3600.000000	102.511	14.1329
3650.000000	102.328	15.4218
3700.000000	102.154	16.8382
3750.000000	101.991	18.3571
3820.000000	101.782	20.6019
3870.000000	101.644	22.2655
3950.000000	101.452	25.0166
4000.000000	101.344	26.8004
4060.000000	101.213	29.0131
4120.000000	101.080	31.2965
4180.000000	100.945	33.6379
4250.000000	100.781	36.4170
4310.000000	100.636	38.8285
4370.000000	100.489	41.2684
4440.000000	100.315	44.1540
4500.000000	100.167	46.6546
4550.000000	100.045	48.7502
4620.000000	99.881	51.7010
4680.000000	99.752	54.2441
4750.000000	99.610	57.2217
4820.000000	99.480	60.2007
4870.000000	99.391	62.3257
4940.000000	99.271	65.2982
5000.000000	99.176	67.8465
5080.000000	99.062	71.2391
5150.000000	98.975	74.1961
5220.000000	98.897	77.1437
5300.000000	98.822	80.5064
5380.000000	98.769	83.8620
5450.000000	98.740	86.7899
5520.000000	98.719	89.7070
5600.000000	98.705	93.0227
5700.000000	98.714	97.1337
5800.000000	98.748	101.2104
5900.000000	98.807	105.2438
6000.000000	98.904	109.2190
6080.000000	99.005	112.3376
6150.000000	99.104	115.0025
6220.000000	99.215	117.5806
6300.000000	99.358	120.3834
6400.000000	99.558	123.6193
6500.000000	99.780	126.5077
6600.000000	100.020	129.0063
6700.000000	100.265	131.0915
6800.000000	100.492	132.7671
6900.000000	100.689	134.0714
7000.000000	100.852	135.0847
7100.000000	100.978	135.9047
7200.000000	101.076	136.5922
7300.000000	101.153	137.1875
7400.000000	101.209	137.7484
7500.000000	101.261	138.3238
7620.000000	101.346	139.0517
7750.000000	101.478	139.8625
7880.000000	101.625	140.6882
8000.000000	101.735	141.4947
8120.000000	101.789	142.3541
8250.000000	101.768	143.2908
8380.000000	101.682	144.1206
8500.000000	101.568	144.6643
8620.000000	101.439	144.8924
8750.000000	101.284	144.7385
8850.000000	101.129	144.3738
9000.000000	100.784	143.5863
9120.000000	100.392	142.9373
9250.000000	99.855	142.4431
9380.000000	99.222	142.3618
9500.000000	98.573	142.7757
9620.000000	97.878	143.7249
9750.000000	97.100	145.3723
9880.000000	96.315	147.6319
10000.000000	95.592	150.2247
10150.000000	94.698	154.0824
10300.000000	93.839	158.5354
10440.000000	93.076	163.1474
10600.000000	92.250	168.8728
10750.000000	91.531	174.5994
10900.000000	90.849	-179.4117
11060.000000	90.167	-172.8080
11200.000000	89.629	-166.8975
11380.000000	89.006	-159.1482
11500.000000	88.631	-153.9199
11720.000000	88.014	-144.2953
11800.000000	87.811	-140.7958
12060.000000	87.246	-129.4855
12200.000000	86.996	-123.4618
12410.000000	86.661	-114.5290
12500.000000	86.525	-110.7356
12650.000000	86.319	-104.4679
12800.000000	86.157	-98.2835
13150.000000	85.915	-84.1650
13200.000000	85.891	-82.1778
13400.000000	85.826	-74.3020
13600.000000	85.805	-66.5391
13800.000000	85.834	-58.8913
14000.000000	85.958	-51.3656
14300.000000	86.395	-40.3901
14500.000000	86.847	-33.4115
14750.000000	87.567	-25.2900
15000.000000	88.470	-18.0469
15250.000000	89.567	-11.9955
15500.000000	90.877	-7.7040
15750.000000	92.375	-6.1375
16000.000000	93.830	-8.5556
16250.000000	94.838	-15.5681
16500.000000	95.068	-25.3707
16750.000000	94.441	-33.8308
17000.000000	93.185	-37.7852
17250.000000	91.704	-36.8916
17500.000000	90.371	-32.3541
17750.000000	89.348	-25.4435
18000.000000	88.614	-17.1194
18250.000000	88.142	-8.0557
18500.000000	87.944	1.2669
18750.000000	88.016	10.4619
19000.000000	88.330	19.1859
19250.000000	88.824	27.1667
19500.000000	89.455	34.1732
19750.000000	90.256	39.7479
