X,Y
20.000000000000004,75.34533333333334
20.0692316585999,75.36448748939317
20.138702968327422,75.38370794915265
20.208414758754824,75.40299494212753
20.278367862325986,75.42234869862808
20.34856311436637,75.44155352039913
20.419001353092984,75.46072831035873
20.48968341962439,75.47996947544395
20.560610157990762,75.49927724541779
20.631782415143945,75.51829874173204
20.703201040967574,75.53694693847488
20.774866888287242,75.55565968749723
20.846780812880652,75.57443721225218
20.918943673487863,75.59306923591896
20.991356331821535,75.6111723401587
21.06401965257721,75.62933810979506
21.136934503443648,75.64756676174949
21.210101755113186,75.66587536941367
21.283522281292143,75.68435296089
21.357196958711228,75.70289451408156
21.43112666713604,75.7214483529049
21.505312289377557,75.73999480483141
21.579754711302677,75.75860545683932
21.654454821844798,75.77728053116253
21.729413513014443,75.79602025080425
21.804631679909882,75.81484027304248
21.880110220727886,75.83396140777737
21.95585003677436,75.85314873190585
22.03185203247519,75.8725617750561
22.108117115386978,75.89226358814165
22.18464619620793,75.91203360068705
22.261440188788697,75.93187204877043
22.33850001014331,75.95177916928704
22.415826580460113,75.97178156386998
22.49342082311276,75.99195599971155
22.57128366467124,76.01220027103585
22.64941603491294,76.03251461958419
22.727818866833744,76.05286842730838
22.806493096659192,76.07323637914527
22.885439663855635,76.09367483633655
22.964659511141466,76.11418404294233
23.04415358449838,76.13437176625271
23.123922833182657,76.15431414489838
23.20396820973652,76.17432555574156
23.28429066999949,76.1944062377429
23.364891173119798,76.21397950514277
23.445770681565858,76.23348038828738
23.52693016113774,76.25304877535619
23.60837058097872,76.27259190029179
23.690092913586827,76.29138803679166
23.772098134826493,76.31024923767677
23.854387223940172,76.32917572817293
23.93696116356005,76.34816773428548
24.01982093971978,76.3671814513188
24.10296754186625,76.38612046271554
24.186401962871393,76.40512503307083
24.270125199044063,76.42419538932245
24.354138250141915,76.44313615455938
24.43844211938334,76.46203417742423
24.523037813459467,76.48099761736242
24.607926342546158,76.50002670082061
24.693108720316086,76.51912165502925
24.77858596395084,76.53821736711802
24.864359094153063,76.55737343005008
24.950429135158647,76.57659580328256
25.036797114748957,76.59588468896061
25.123464064263118,76.61524030768544
25.21043101861031,76.63466292748964
25.29769901628215,76.65415278030302
25.385269099365058,76.6737100988582
25.473142313552746,76.69278658880829
25.56131970815867,76.71181825738991
25.649802336128563,76.73091580567059
25.738591254053063,76.75007946169843
25.827687522180195,76.76905559930591
25.917092204428215,76.78753247458614
26.006806368398166,76.80607330910242
26.096831085386697,76.82467832425498
26.18716743039883,76.84334774221038
26.277816482160816,76.86113083863408
26.368779323133005,76.87881811666959
26.460057039522763,76.89656662068484
26.551650721297467,76.91332916729264
26.643561462197496,76.92933695466608
26.73579035974931,76.94540015432301
26.82833851527854,76.96151895807769
26.92120703392315,76.9773224242399
27.014397024646637,76.99192214078751
27.107909600251258,77.00657239546473
27.201745877391332,77.02125737005865
27.29590697658657,77.03514616691194
27.39039402223545,77.04908304098734
27.485208142628654,77.06306815870813
27.580350469962536,77.0771016870737
27.675822140352633,77.09067828476634
27.771624293847253,77.1041704213835
27.867758074441067,77.11770926215046
27.96422463008878,77.13129496873752
28.061025112718838,77.14455138184614
28.15816067824718,77.15763230467063
28.255632486591054,77.17075850819427
28.353441701682847,77.18393014915996
28.451589491483997,77.19714738485318
28.55007702799894,77.2104437577892
28.648905487289102,77.22381854261313
28.74807604948694,77.2372396253639
28.84758989881004,77.25070716630563
28.94744822357525,77.26422132625719
29.04765221621289,77.27775049845002
29.14820307328096,77.29129134720183
29.249101995479457,77.30487906872457
29.350350187664684,77.31851382527219
29.451948858863677,77.33219577966032
29.553899222288603,77.34570949837905
29.656202495351266,77.35907712605925
29.758859899677645,77.37249102689123
29.86187266112248,77.38595136105334
29.965242009783903,77.39945828927844
30.068969180018136,77.41302346771904
30.173055410454214,77.42664141620111
30.277501944008847,77.44030650434117
30.3823100279011,77.45401889531708
30.48748091366751,77.46751141281948
30.59301585717679,77.48099638842909
30.698916118645073,77.49452804340007
30.805182962650704,77.50825270414083
30.911817658149584,77.52202638674363
31.01882147849015,77.53584774809103
31.12619570142865,77.5497169447679
31.233941609144395,77.56363412451451
31.34206048825507,77.57759947973295
31.45055362983208,77.59161317718666
31.559422329415995,77.60564567305154
31.668667887032,77.61970193479813
31.77829160720543,77.63380685346044
31.88829479897733,77.64796059746844
31.998678775920116,77.66216333583506
32.10944485615323,77.6756126425466
32.2205943623589,77.68909878263288
32.332128621797935,77.7026316061115
32.444048966325546,77.71621127458084
32.556356732407295,77.72938709633951
32.669053261135026,77.74215936959531
32.78213989824286,77.7549758551342
32.89561799412333,77.76783670600065
33.00948890384341,77.78070412015356
33.12375398716082,77.79319710259625
33.23841460854012,77.80573333053373
33.353472137169135,77.81831295366383
33.46892794697522,77.83093612220263
33.5847834166417,77.8428116749975
33.70103992962432,77.85443732629578
33.81769887416778,77.86610322075012
33.93476164332231,77.87780949766558
34.052229634960284,77.88976521536921
34.17010425179293,77.9020241755198
34.28838690138708,77.9143255710776
34.40707899618198,77.92666954893626
34.526181953506146,77.93900389259096
34.6456971955943,77.95119444728397
34.765626149604344,77.96342720059299
34.8859702476344,77.97570229859205
35.00673092673992,77.98799745143835
35.127909628950846,77.99995375005649
35.24950780128883,78.01195143639383
35.37152689578449,78.02399065371742
35.493968369494795,78.03607154579015
35.616833684520415,78.04780481125762
35.7401243080232,78.05955851736489
35.86384171224376,78.0713529099006
35.98798737451889,78.08318812970414
36.11256277729941,78.09416381588414
36.237569408167666,78.10508106164666
36.3630087598555,78.11603609836072
36.48888233026185,78.12702905684287
36.615191622470896,78.13736891862764
36.74193814476971,78.1476776357746
36.869123410666575,78.1580220374009
36.996748938908816,78.16840224703127
37.12481625350105,78.17873517778243
37.25332688372337,78.18910170195369
37.38228236414958,78.19950411070806
37.51168423466557,78.20986797047807
37.64153404048765,78.21951394227345
37.77183333218102,78.22919330440017
37.90258366567831,78.23890617244159
38.03378660229813,78.24865266238122
38.16544370876371,78.25843289060404
38.29755655722165,78.26776385196737
38.430126725260635,78.27695538361809
38.56315579593034,78.28617873251785
38.69664535776027,78.29543400880472
38.83059700477875,78.30420983265823
38.965012336532006,78.3130028466017
39.09989295810319,78.32182629829214
39.23524048013159,78.33068029309231
39.37105651883186,78.33956493672976
39.5073426960133,78.3484797228062
39.644100639099285,78.35741457508783
39.781331981146586,78.36638035610159
39.91903836086499,78.37537717290985
40.057221422636765,78.38429070218045
40.19588281653639,78.39307261973381
40.33502419835019,78.40188493662309
40.47464722959613,78.41072775807807
40.61475357754367,78.41941263935708
40.755344915233636,78.4265202770021
40.896422921498264,78.43365251832427
41.03798928098117,78.44080944849127
41.180045684157534,78.44799115296554
41.322593827354225,78.45478912503326
41.465635412770105,78.46154388908268
41.60917214849634,78.46832203530802
41.75320574853679,78.47512364464862
41.89773793282849,78.48291840723057
42.04277042726215,78.49120596650171
42.188304963702876,78.49952221384653
42.33434328001063,78.50786724857123
42.480887120061276,78.51624117032564
42.6279382337671,78.52458319074634
42.775498377098,78.53294496007432
42.923569312102174,78.54133567436027
43.07215280692742,78.54975543379956
43.22125063584199,78.55638550123258
43.37086457925607,78.56261938437208
43.52099642374272,78.56887484661506
43.67164796205952,78.57515196265933
43.82282099316973,78.5811291547869
43.97451732226391,78.58705252679432
44.12673876078142,78.59299640304519
44.27948712643209,78.59896085451662
44.43276424321787,78.6055414012777
44.58657194145468,78.61434264890319
44.74091205779421,78.62317436277722
44.895786435245874,78.63203664836124
45.051196923198816,78.64100355282767
45.207145377444,78.65015252881005
45.363633660196356,78.65933317473151
45.520663640117036,78.66799260090956
45.6782371923357,78.67301994039367
45.83635619847295,78.67806468243032
45.995022546662746,78.68312688725989
46.154238131575006,78.68820661533128
46.31400485443818,78.69106005175442
46.47432462306201,78.69301952212471
46.635199351860244,78.69498577536423
46.79663096187355,78.69695883495235
46.958621380792444,78.70168313026655
47.12117254298028,78.70648225296098
47.28428638949641,78.71129798821659
47.44796486811928,78.71613039353916
47.61220993336976,78.72284968951801
47.777023546534444,78.73046249791732
47.94240767568909,78.73810165868423
48.10836429572211,78.74576726303967
48.27489538835816,78.75239662042746
48.44200294218179,78.75774406214983
48.60968895266121,78.76311001448516
48.7779554221721,78.76737348071426
48.946804360021545,78.77034843394073
49.11623778247199,78.77333368521448
49.28625771276537,78.77632927018311
49.456866181147205,78.77969175996662
49.62806522489091,78.78378152853305
49.79985688832204,78.78788545417255
49.97224322284287,78.79200358589098
50.145226286956586,78.79690243866429
50.31880814629227,78.80196524922343
50.49299087362914,78.80704558512117
50.66777654892171,78.81214350702295
50.843167259324225,78.81678113881473
51.019165099216,78.81996585708221
51.195772170226014,78.8231615995161
51.3729905812584,78.82636840427745
51.550822448517245,78.82944110287109
51.729269895532234,78.83216029817912
51.908335053183706,78.83488890620723
52.08802005972826,78.8376269595383
52.26832706082425,78.84078526394076
52.449258209557385,78.84463005565735
52.63081566646648,78.84848815643927
52.81300159956923,78.85235961235703
52.99581818438809,78.85624446964052
53.179267603976285,78.85909704568262
53.36335204894384,78.86193501775666
53.548073717483774,78.8647828137064
53.73343481539832,78.86764046753798
53.919437556125295,78.86974729967834
54.1060841607645,78.87143600464121
54.293376858104274,78.87313055519635
54.481317884648064,78.87483097157877
54.66990948464119,78.87726545655886
54.85915391009759,78.8797887119603
55.049053420826745,78.88232070181955
55.23961028446065,78.88487796167546
55.43082677648091,78.88750719172727
55.62270518024589,78.89014552307695
55.81524778701797,78.89279298722941
56.00845689599094,78.89540944539725
56.20233481431745,78.8971543466622
56.39688385713656,78.89890528804757
56.59210634760132,78.90066229046175
56.78800461690663,78.90242537488551
56.98458100431699,78.9041945623722
57.181837857194445,78.90463639642866
57.37977753102665,78.90496629588505
57.57840238945495,78.90529733731577
57.77771480430266,78.90562952467384
57.97771715560335,78.90596286192601
58.17841183162926,78.9062378824422
58.37980122891984,78.90650640163857
58.58188775231034,78.90677585033642
58.78467381496064,78.90704623175328
58.988161838383796,78.90731754911785
59.19235425247535,78.90778215992246
59.3972534955419,78.90826025815626
59.602862014330675,78.90874001136677
59.80918226405829,78.90922142528281
60.01621670844054,78.90964639575579
60.223967819721324,78.90938670654208
60.43243807870266,78.90912611839262
60.64162997477384,78.90886462819566
60.851546005941614,78.9086175743502
61.06218867885955,78.90841696256734
61.27356050885842,78.90821565635015
61.48566401997589,78.90801365329482
61.69850174498684,78.90809452450544
61.912076225433545,78.9081962264937
62.12639001165605,78.90829828053184
62.3414456628226,78.90756717378535
62.557245746960234,78.9063982552018
62.77379284098541,78.90522529030962
62.9910895307348,78.90404826510219
63.20913841099617,78.90288459514137
63.42794208553936,78.90171764221047
63.64750316714736,78.90054664977522
63.86782427764756,78.89937160385254
64.08890804794298,78.89881484674659
64.31075711804374,78.89918459519674
64.53337413709862,78.89955562356185
64.75676176342657,78.89992793627238
64.98092266454859,78.90030153777425
65.20585951721951,78.89875507703465
65.43157500745995,78.89702459160948
65.65807183058847,78.8952881159655
65.88535269125362,78.89354562936707
66.11342030346634,78.89228859898846
66.3422773906324,78.89152574203125
66.5719266855848,78.89076024438138
66.80237093061649,78.88999209689796
67.03361287751311,78.8892100861158
67.26565528758579,78.88835926394553
67.49850093170421,78.88750549658376
67.73215259032965,78.88664877383546
67.9666130535481,78.88578908547034
68.20188512110387,78.88384970057673
68.43797160243253,78.88172492224479
68.67487531669501,78.87959278881642
68.91259909281078,78.87745327483138
69.15114576949206,78.87651552089717
69.3905181952773,78.8762761484714
69.6307192285656,78.8760359474381
69.87175173765043,78.87579491492903
70.11361860075436,78.87479559072756
70.35632270606287,78.87293485925353
70.59986695175942,78.87106768670319
70.8442542460595,78.86919405078022
71.08948750724592,78.86722444160388
71.33556966370305,78.86509172958124
71.58250365395243,78.86295163499909
71.83029242668721,78.86080413230205
72.078938940808,78.85841237902393
72.3284461654576,78.85550146140301
72.57881708005705,78.85258046739933
72.83005467434056,78.84964936213271
73.08216194839189,78.8461603642795
73.33514191267953,78.84152239826756
73.58899758809325,78.83686837755164
73.84373200597959,78.83219824655704
74.09934820817861,78.82797557448822
74.35584924705978,78.8244700602902
74.61323818555869,78.82095241146403
74.87151809721345,78.81742258600475
75.13069206620158,78.81359737044524
75.39076318737663,78.8094795673988
75.65173456630535,78.80534751023562
75.91360931930457,78.8012011496139
76.17639057347857,78.79704043602102
76.44008146675635,78.79217278830045
76.7046851479291,78.78721996159527
76.9702047766878,78.78224999026973
77.23664352366099,78.77726281497627
77.5040045704526,78.77225529573025
77.77229110967993,78.76702715985127
78.04150634501178,78.76178092634636
78.31165349120677,78.75651653256911
78.5827357741516,78.75123391565623
78.8547564308997,78.74596576594188
79.12771870970981,78.74080979889665
79.40162587008479,78.73563598404392
79.6764811828105,78.73044425960201
79.95228792999498,78.7252345635754
80.22904940510749,78.71943420880963
80.50676891301788,78.71349408226233
80.78544977003627,78.70753339347439
81.06509530395215,78.70155207126788
81.34570885407476,78.69601396980386
81.62729377127232,78.69088769211551
81.90985341801267,78.68574366939181
82.1933911684028,78.6805818402069
82.47791040822979,78.67540214292217
82.76341453500052,78.6692589272294
83.04990695798301,78.66301487600964
83.33739109824639,78.65674921048877
83.62587038870242,78.65046185584708
83.91534827414587,78.64362282543378
84.20582821129628,78.63595736348422
84.49731366883854,78.62826536690241
84.78980812746507,78.62054674383654
85.08331507991659,78.61307911974417
85.37783803102465,78.6062887125065
85.67338049775267,78.59947479971105
85.9699460092387,78.59263729999135
86.26753810683681,78.58582665058087
86.56616034416017,78.57916509296724
86.86581628712267,78.5724804758195
87.16650951398229,78.56577271931515
87.46824361538307,78.5590417433554
87.77102219439872,78.5517384599363
88.07484886657505,78.54434534424668
88.37972725997348,78.53692663667398
88.6856610152142,78.53028677969571
88.99265378551978,78.52414692428961
89.30070923675868,78.51798581526484
89.60983104748908,78.51180337905022
89.9200229090028,78.50559954181995
90.23128852536935,78.49834626635665
90.54363161348022,78.49071119400404
90.85705590309318,78.48304969221529
91.17156513687692,78.47536166950275
91.48716307045565,78.46752434755045
91.803853472454,78.45964770701093
92.121640124542,78.45174380082699
92.44052682148025,78.44381253461631
92.76051737116521,78.43678900207495
93.08161559467473,78.4299553889855
93.40382532631361,78.42309812077768
93.7271504136594,78.41621711556724
94.05159471760838,78.40781776389842
94.37716211242166,78.39895507377177
94.70385648577137,78.39006170470827
95.0316817387872,78.38139276515516
95.36064178610285,78.37508768181891
95.69074055590303,78.3687607729138
96.02198198996986,78.36241196288883
96.35437004373067,78.35452715033695
96.68790868630441,78.34486310427685
97.02260190054987,78.33516560531984
97.35845368311246,78.32543453766601
97.69546804447266,78.3178249406314
98.03364900899322,78.31175503989105
98.37300061496792,78.30566412768593
98.71352691466902,78.29955213128308
99.05523197439648,78.2900595231676
99.39811987452568,78.27939187293889
99.74219470955697,78.26868729575425
100.08746058816375,78.2576930066691
100.43392163324232,78.24591333113644
100.78158198196034,78.23409287928003
101.13044578580704,78.22223150994922
101.4805172106419,78.21032908150484
101.83180043674537,78.20251452391905
102.1842996588678,78.1949162073533
102.53801908628047,78.18729158858463
102.89296294282498,78.17964057656577
103.24913546696452,78.17003723365238
103.60654091183363,78.15957037486244
103.9651835452898,78.14906728417277
104.32506764996401,78.13852783616369
104.68619752331175,78.12780708104354
105.04857747766447,78.11701116474188
105.41221184028133,78.10617787748065
105.77710495340071,78.09530708989715
106.14326117429174,78.08440066725444
106.5106848753066,78.07345960593533
106.87938044393297,78.06248067122512
107.24935228284617,78.05146373202193
107.62060480996153,78.04035505463229
107.99314245848737,78.02909613903239
108.36696967697812,78.01779824976245
108.74209092938727,78.00646125191186
109.11851069512045,77.99501258233285
109.49623346908909,77.9833661155774
109.87526376176437,77.97167933361145
110.25560609923083,77.95995209688051
110.63726502324023,77.94816208570471
111.02024509126593,77.93612558647605
111.40455087655766,77.92404742190712
111.79018696819575,77.91192744776988
112.17715797114586,77.89952649840161
112.56546850631406,77.88679856318433
112.95512321060234,77.87402656916377
113.34612673696368,77.86121036382671
113.73848375445733,77.84834979413203
114.13219894830532,77.83710564503342
114.52727701994749,77.82613122671843
114.9237226870986,77.81511881954434
115.32154068380368,77.80252555435034
115.7207357604955,77.78952145457373
116.12131268405041,77.77647234002733
116.52327623784619,77.76337805488873
116.92663122181813,77.75023844279623
117.33138245251745,77.73635165360669
117.73753476316772,77.72095176957744
118.14509300372364,77.70713085025778
118.55406204092793,77.69622500087654
118.96444675837041,77.68528139999326
119.37625205654543,77.67429991692796
119.78948285291119,77.66328042054835
120.20414408194767,77.65222277926817
120.62024069521645,77.64077502541306
121.03777766141883,77.62238354246102
121.45675996645618,77.60392839586554
121.87719261348849,77.58540936524965
122.29908062299509,77.56893875372614
122.72242903283366,77.55328156746654
123.14724289830129,77.53757018255826
123.57352729219393,77.52180441138815
124.00128730486777,77.5059840656937
124.43052804429976,77.49168294446233
124.86125463614822,77.47780400734484
125.29347222381439,77.46302919747497
125.72718596850407,77.44780102599476
126.162401049289,77.43252014093608
126.59912266316846,77.417847177581
127.03735602513154,77.40538187306294
127.47710636821976,77.39287341885954
127.9183789435892,77.38032166560458
128.36117902057302,77.36516954526917
128.80551188674457,77.34938514916612
129.25138284798092,77.33354611406698
129.6987972285258,77.31765225083429
130.14776037105298,77.30170336967593
130.59827763673042,77.28569928014282
131.0503544052844,77.26963979112658
131.50399607506358,77.25348284721376
131.9592080631032,77.23254309576392
132.41599580519002,77.21659214192441
132.87436475592747,77.20108399242447
133.33432038880056,77.18552216017893
133.79586819624083,77.16990645936052
134.25901368969286,77.1514307218604
134.72376239967898,77.13067194614769
135.1901198758665,77.1098413122113
135.65809168713267,77.08893857130808
136.12768342163258,77.06860189094192
136.5989006868646,77.04991027275439
137.0717491097384,77.03115395198039
137.54623433664113,77.01233270464657
138.022362033506,76.99346866803778
138.50013788587867,76.9749946684127
138.97956759898645,76.95645671950588
139.4606568978051,76.93785459995155
139.9434115271285,76.91918808761771
140.42783725163596,76.89822269840043
140.9139398559624,76.87688819521054
141.40172514476606,76.85547984086861
141.8911989427991,76.83399737973271
142.3823670949759,76.81244055527605
142.87523546644422,76.79080911008384
143.3698099426538,76.77584154480523
143.86609642942796,76.76310352497802
144.364100853033,76.75032141143883
144.86382916025,76.7374950515536
145.36528731844473,76.72002167194752
145.86848131564,76.70076611498818
146.37341716058657,76.68144390332156
146.88010088283474,76.66205480621686
147.38853853280662,76.64259859214461
147.8987361818686,76.62387250113757
148.41069992240364,76.60530528281417
148.92443586788372,76.58667379252476
149.43995015294303,76.56797780778662
149.95724893345167,76.54921710534683
150.47633838658876,76.52905771369728
150.997224710916,76.50870842129355
151.51991412645182,76.48828868812663
152.04441287474617,76.46779827035992
152.57072721895454,76.44738780804663
153.09886344391268,76.42788197680484
153.62882785621167,76.4083086245106
154.16062678427377,76.38866751743416
154.6942665784276,76.36895842103677
155.22975361098364,76.34449412630362
155.76709427631067,76.31368659482486
156.30629499091236,76.28277242052103
156.84736219350373,76.25175123423912
157.39030234508758,76.22062266554833
157.93512192903196,76.19913307394582
158.4818274511481,76.18003482770656
159.03042543976747,76.16087047130414
159.5809224458195,76.14163977589271
160.13332504291088,76.12580896295002
160.68763982740265,76.12085708420854
161.24387341849044,76.11588806412816
161.80203245828207,76.11090184337269
162.36212361187822,76.10589836240057
162.92415356745073,76.10636328093648
163.48812903632376,76.10861918281198
164.05405675305263,76.11088289367888
164.62194347550547,76.11315444056869
165.1917959849428,76.1145643754747
165.76362108609956,76.11425940208743
166.33742560726526,76.11395337300947
166.91321640036674,76.11364628458648
167.4910003410487,76.11333813315144
168.07078432875713,76.1073210717371
168.65257528682034,76.1011928736455
169.23638016253295,76.095043462288
169.8222059272376,76.0888727642331
170.4100595764095,76.09771622359685
170.99994812973853,76.11313197779052
171.59187863121434,76.12860109489574
172.18585814921002,76.14412375963269
172.78189377656594,76.15263402002836
173.379992630675,76.15327199213938
173.9801618535679,76.15391217264381
174.58240861199803,76.15455456918615
175.1867400975268,76.15303300430607
175.79316352660976,76.14664534418638
176.40168614068318,76.14023557265148
177.01231520625018,76.13380361316085
177.6250580149671,76.1263155759853
178.23992188373097,76.11475613525253
178.85691415476722,76.10315668055705
179.476042195717,76.0915170733872
180.09731339972484,76.0783320608361
180.7207351855272,76.05696947430928
181.34631499754144,76.03553293941759
181.9740603059545,76.01402220018264
182.60397860681155,75.99297768849536
183.23607742210595,75.9746046829308
183.87036429986944,75.95616807768381
184.5068468142619,75.9376676525988
185.14553256566143,75.91873450425844
185.78642918075542,75.89848217122147
186.42954431263215,75.87815973305418
187.07488564087157,75.8577669470818
187.72246087163666,75.83863833501944
188.37227773776664,75.82200302324651
189.02434399886786,75.80531012696233
189.67866744140792,75.7885594468333
190.33525587880717,75.77157197970051
190.99411715153357,75.75435373843993
191.65525912719465,75.73707589480932
192.3186897006332,75.71973824249012
192.9844167940198,75.70498871959028
193.6524483569491,75.6911827339564
194.32279236653312,75.67732895775833
194.99545682749817,75.66342722556504
195.6704497722787,75.6443819531036
196.34777926111494,75.62523610621916
197.0274533821475,75.60602398439796
197.7094802515156,75.58830947743515
198.3938680134523,75.57407421198685
199.08062484038345,75.5597896699867
199.76975893302352,75.54545568085979
200.4612785204754,75.52764836175548
201.1551918603267,75.50806458527524
201.85150723875014,75.48841301792861
202.55023297060166,75.46869342505192
203.25137739951927,75.44982728830071
203.9549488980233,75.43255069928188
204.66095586761656,75.41521430591743
205.36940673888446,75.39781790118963
206.08030997159506,75.38002219081744
206.79367405480068,75.3594931577563
207.5095075069396,75.33889306174474
208.22781887593737,75.31822165679247
208.9486167393085,75.29747869605768
209.67190970425924,75.27905294412592
210.39770640779082,75.26074673838127
211.1260155168022,75.24237716418732
211.85684572819312,75.2239440021889
212.59020576896827,75.20321736603326
213.32610439634215,75.18187630583942
214.06455039784294,75.16009558620812
214.80555259141724,75.13440751016421
215.5491198255357,75.10863051271478
216.2952609792991,75.08276428605097
217.04398496254393,75.05680852129849
217.79530071594846,75.0307629085138
218.54921721113976,75.00288794884521
219.3057434508015,74.97426603944469
220.06488846878074,74.94615608601215
220.8266613301956,74.92450904053362
221.59107113154386,74.90278706201197
222.35812700081198,74.88098989106027
223.12783809758375,74.85911726739367
223.9002136131491,74.83716892982636
224.6752627706145,74.81467568378879
225.45299482501323,74.79203503953852
226.23341906341585,74.76931602282058
227.01654480504027,74.74647424286206
227.8023814013637,74.72150210213445
228.59093823623473,74.69644351827078
229.3822247259849,74.67129819204094
230.17625031954074,74.64637915708045
230.97302449853674,74.62247593171058
231.77255677743028,74.59848996334377
232.57485670361243,74.5744209655583
233.37993385752355,74.55136623764048
234.18779785276797,74.52946414710273
234.9984583362283,74.50748624066226
235.81192498818024,74.485432255876
236.62820752240845,74.4600212901088
237.44731568632318,74.43353679280891
238.26925926107617,74.40696061722521
239.09404806167697,74.38029244600578
239.92169193711052,74.3535319607001
240.7522007704554,74.32993837842726
241.58558447900123,74.30660363458797
242.42185301436672,74.28318811559774
243.26101636261885,74.25997430957285
244.10308454439277,74.23730864101344
244.94806761501087,74.21456451336263
245.79597566460234,74.1917416550278
246.64681881822423,74.16883979347614
247.5006072359828,74.14787498993195
248.3573511131544,74.12826507452114
249.21706068030656,74.10858727776188
250.07974620342088,74.08955686533574
250.945417984016,74.07750959972246
251.81408635927002,74.06542063150016
252.68576170214365,74.05328981631185
253.5604544215044,74.04111700930075
254.4381749622515,74.0320423190048
255.31893380544003,74.02609719681328
256.2027414684056,74.02013149508826
257.08960850489035,74.014145142592
257.9795455051698,74.00813806784012
258.8725630961785,74.00618216021631
259.7686719416364,74.00431526678825
260.66788274217686,74.0024419109538
261.5702062354749,74.00056207034278
262.47565319637505,73.99681274748842
263.384234437019,73.99136126004457
264.2959608069758,73.98589090182482
265.2108431933717,73.97966365632965
266.12889252101957,73.97094218771699
267.05011975254894,73.96219052901746
267.9745358885373,73.95340857572558
268.9021519676422,73.94459622297407
269.83297906673243,73.93117198066568
270.76702830101965,73.9171612421514
271.7043108241918,73.9031020043038
272.64483782854666,73.8881880519528
273.58862054512537,73.87285158280838
274.53567024384506,73.8574620252042
275.4859982336357,73.8420191953701
276.439615862574,73.82568031182991
277.39653451801837,73.80829628958935
278.3567656267455,73.79085209111413
279.3203206550875,73.77334750809926
280.28721110906804,73.75579190522224
281.2574485345392,73.73819826657369
282.23104451732013,73.72054372608595
283.2080106833358,73.70282807294218
284.18835869875517,73.68505109559592
285.17210027013016,73.66756825565992
286.1592471445359,73.6517080958778
287.1498111097115,73.63579303483732
288.14380399420025,73.6198228824932
289.14123766749054,73.60379744814232
290.14212404015774,73.5876502158694
291.14647506400746,73.57104494560842
292.1543027322174,73.55438219482734
293.16561907947994,73.5376617645526
294.1804361821467,73.52088345512185
295.1987661583731,73.50399406187267
296.22062116826265,73.48682689770654
297.2460134140113,73.46960030797796
298.27495514005415,73.45231408698044
299.3074586332118,73.43496802829539
300.3435362228368,73.41651986491375
301.38320028096024,73.3958998610943
302.4264632224399,73.37520847942162
303.47333750510927,73.35444547281533
304.5238356299257,73.3338143071959
305.57797014111895,73.31331724725602
306.6357536263418,73.29274923504336
307.6971987168207,73.27195509190254
308.76231808750623,73.25100774427905
309.8311244572238,73.22998788567462
310.9036305888259,73.20889526508644
311.9798492893454,73.18609654849398
313.05979341014796,73.16305774058353
314.1434758470844,73.13993918192888
315.23090954064577,73.11711005173127
316.3221074761183,73.09557707913795
317.41708268373776,73.07396956837425
318.51584823884474,73.05228726142013
319.618417262041,73.0305298993624
320.7248029193471,73.0073442569421
321.83501842235887,72.98336360207706
322.94907702840413,72.95929993618648
324.0669920407031,72.93515297192083
325.18877680852614,72.91111119774438
326.3144447273526,72.88792243861656
327.4440092390314,72.86465340967597
328.5774838319422,72.841303833062
329.71488204115565,72.8178734299522
330.85621744859475,72.79447608288545
332.0015036831973,72.77103589128389
333.15075442107957,72.74751455951525
334.30398338569864,72.72391180670604
335.46120434801605,72.70031959188022
336.6224311266625,72.676785395833
337.78767758810375,72.65316973421444
338.9569576468055,72.62947232502476
340.13028526539887,72.60584922760641
341.3076744548477,72.58340034039425
342.48913927461666,72.56087374449731
343.6746938328385,72.53826917092056
344.8643522864817,72.51558634973776
346.0581288415201,72.49169633932408
347.2560377531037,72.46757843990419
348.4580933257277,72.44337705437535
349.6643099134028,72.4190918937435
350.87470191982726,72.39670532569909
352.08928379855985,72.37500479613242
353.3080700531912,72.353229148383
354.531075237517,72.33137812242303
355.7583139557117,72.31026032554405
356.9898008625044,72.28957134550993
358.22555066335246,72.26881074885569
359.46557811461696,72.24797828767444
360.7098980237391,72.22598520289813
361.9585252494181,72.20309370376067
363.2114747017877,72.18012296380056
364.4687613425939,72.15707270871911
365.73040018537364,72.13501391687338
366.9964062956353,72.11366061381364
368.26679479103797,72.0922333945245
369.54158084157075,72.07073200313884
370.82077966973503,72.05025055579678
372.104406550727,72.03031155157872
373.39247681261907,72.010303526844
374.68500583654236,71.99022624267239
375.98200905687094,71.97013557411987
377.28350196140724,71.94999342202586
378.5895000915657,71.92978154620197
379.90001904255814,71.90949970529375
381.21507446358044,71.88914765711125
382.5346820580001,71.86823121424881
383.8588575835433,71.8465147356299
385.1876168524816,71.8247230836193
386.5209757318234,71.80285599799811
387.85895014350183,71.78218732702611
389.2015560645645,71.76216012203692
390.5488095273649,71.74206359121682
391.90072661975444,71.72189749458867
393.2573234852741,71.70166159134466
394.61861632334643,71.68135563984343
395.98462138946934,71.66142247723235
397.3553549954114,71.6415925310664
398.7308335094058,71.62169394189728
400.1110733563448,71.60184618450673
401.4960910179768,71.583302336926
402.8859030331041,71.564694298279
404.2805259977793,71.54602184636308
405.6799765655028,71.52728475820633
407.08427144742245,71.5064347417755
408.49342741253406,71.4849059700863
409.9074612878806,71.4633026747685
411.3263899587525,71.44162459785241
412.7502303688899,71.4212885822832
414.1789995206861,71.40215895086193
415.61271447538945,71.38296310063507
417.05139235330654,71.36370080238073
418.49505033400715,71.34383355706962
419.9437056565305,71.32286254668644
421.39737561959015,71.30181894341166
422.85607758177974,71.280702495959
424.31982896178124,71.25951295217232
425.78864723857345,71.2394580663007
427.2625499516403,71.22037921451488
428.74155470117927,71.20123431970143
430.2256791483121,71.18202315324686
431.71494101529714,71.16167307422349
433.20935808573967,71.14008704987266
434.7089482048035,71.1184263037084
436.2137292794251,71.09669057707498
437.72371927852794,71.0758905198897
439.2389362332366,71.05612054629016
440.75939823709086,71.0362821372875
442.28512344626296,71.01637505598687
443.816130079775,70.99639906467343
445.3524364197158,70.97461507798408
446.89406081145813,70.95251846170244
448.4410216638789,70.93034535615108
449.9933374495799,70.90809549655603
451.551026705107,70.88669923324987
453.1141080311708,70.86523291637194
454.68260009287116,70.84369229205792
456.25652161991854,70.82341739281438
457.8358914068572,70.80341204217983
459.4207283132899,70.783337441365
461.01105126410476,70.76319335065467
462.60687924969983,70.74274352090673
464.20823132620905,70.72183697990783
465.8151266157307,70.70085806918352
467.4275843065569,70.67980653821996
469.04562365340144,70.65958668308235
470.6692639776291,70.63979373436796
472.2985246674871,70.61993227072016
473.9334251783376,70.60000205496884
475.5739850328892,70.58030350794964
477.22022382142893,70.56109738875001
478.87216120205727,70.54182478597602
480.52981690092383,70.52248546948924
482.1932107124619,70.50305344692629
483.8623624996238,70.48335745583779
485.5372921941193,70.46359328544274
487.2180197966541,70.4436651862981
488.9045653771684,70.42302508086038
490.5969490750748,70.402313527986
492.2951910995004,70.38153028035374
493.99931172952876,70.36067508978626
495.70933131444116,70.34176905935702
497.4252702739587,70.32279840086012
499.14714909848686,70.30376207385562
500.8749883493615,70.28408867807623
502.6088086590933,70.2637885319498
504.34863073161296,70.24341811518404
506.09447534251956,70.22297718453135
507.8463633393297,70.20246549590202
509.60431564172535,70.18408873836884
511.3683532418027,70.16586034983472
513.1384972043239,70.14756886222199
514.9147686669694,70.129214057108
516.6971888405894,70.1089368894409
518.4857790094567,70.08849585893955
520.2805605315207,70.06798407011597
522.0815548386645,70.04752118306497
523.8887834369594,70.02952419827362
525.7022679069208,70.01146491542691
527.5220299037668,69.99334311887499
529.3480911576777,69.97515859222146
531.1804734740547,69.95543552647831
533.0191987337794,69.93482648085889
534.864288893475,69.91414609531897
536.7157659857727,69.89339412290947
538.5736521195685,69.87320884526913
540.4379694802903,69.85438811762755
542.3087403301641,69.83550224047644
544.1859870084784,69.81655098829538
546.0697319318496,69.79794165170966
547.9599975944915,69.77957907098686
549.8568065684843,69.76115292666806
551.7601815040435,69.74266299872262
553.6701451297891,69.72279680947055
555.5867202530179,69.70267277067666
557.5099297599774,69.68247907085357
559.4397966161374,69.66221546886389
561.3763438664639,69.64385448227739
563.3195946356947,69.62623567530304
565.269572128617,69.60855587936722
567.2262996303432,69.59081488335157
569.1898005065881,69.57301247540694
571.1600982039486,69.5546844036693
573.1372162501852,69.53596768616494
575.121178254502,69.51718617919073
577.1120079078266,69.49833965847259
579.1097289830951,69.47942789896005
581.1143653355367,69.46178791322625
583.1259409029573,69.44515888853556
585.1444797060245,69.42847230109687
587.1700058485553,69.41172795165194
589.2025435178053,69.39492564025282
591.2421169847564,69.37628479858121
593.2887506044052,69.35643245247061
595.3424688160551,69.33651138581762
597.4032961436095,69.31652136074034
599.4712571958632,69.29646213853347
601.5463766667953,69.2794133465268
603.6286793358651,69.26336226345272
605.7181900683091,69.24725561822346
607.8149338154373,69.23109321850602
609.9189356149291,69.21404104808796
612.030220591134,69.19684915613887
614.148813955373,69.17959775303007
616.2747410062378,69.16386488352838
618.4080271298924,69.1491350507698
620.5486978003768,69.1343542294736
622.6967785799128,69.1187300722532
624.8522951192081,69.1013961267497
627.0152731577612,69.08400217835634
629.1857385241699,69.06654801936814
631.363717136441,69.04949937804942
633.549235002299,69.03267089048232
635.742318219494,69.01578414970992
637.9429929761176,68.99883895408391
640.1512855509139,68.98188552977494
642.3672223135916,68.96556146228988
644.5908297251402,68.94918088769147
646.8221343381476,68.93274361037565
649.0611627971158,68.91624943406126
651.3079418387772,68.90000334821674
653.5624982924161,68.88392084551411
655.8248590801896,68.86778267189466
658.0950512174483,68.85158863464888
660.373101813057,68.83545047094412
662.6590380697205,68.81982990652358
664.9528872843092,68.80415527022389
667.2546768481836,68.78842637487075
669.5644342475209,68.77264303264194
671.8821870636435,68.75824806514724
674.2079629733503,68.74413835796169
676.5417897492458,68.7299798088546
678.8836952600703,68.71577224875558
681.2337074710341,68.70048741844987
683.5918544441527,68.68421620433536
685.9581643385804,68.6678886660638
688.3326654109458,68.65150460866448
690.7153860156899,68.63568383770534
693.1063546054063,68.62125832721405
695.5055997311797,68.6067828816219
697.9131500429254,68.59225732807435
700.3290342897326,68.5779447205504
702.7532813202093,68.56525782775758
705.1859200828256,68.55252701823322
707.6269796262575,68.53975213995592
710.0764890997351,68.52692284183144
712.5344777533932,68.5137316360568
715.0009749386174,68.50049476782942
717.476010108395,68.48721207908496
719.9596128176668,68.47388341121187
722.4518127236818,68.46459495958905
724.9526395863503,68.45534190019718
727.4621232685975,68.44605681057287
729.9802937367216,68.43673957984082
732.5071810607528,68.42580221540342
735.0428154148118,68.41481446653582
737.5872270774674,68.40378868266431
740.1404464321007,68.39294476487119
742.7025039672685,68.38585640569056
745.2734302770665,68.37874350956679
747.8532560614926,68.37160599156321
750.442012126815,68.36467213938134
753.0397293859446,68.3588272755483
755.6464388587954,68.35296217923438
758.2621716726601,68.3470767804032
760.8869590625826,68.34117100877586
763.5208323717297,68.33453312227171
766.1638230517635,68.32734960914136
768.8159626632188,68.3201412296846
771.477282875881,68.31290789782453
774.1478154691633,68.30564952718639
776.8275923324846,68.29696019084058
779.5166454656514,68.28758297991465
782.2150069792418,68.27817330899548
784.9227090949873,68.26873106572005
787.6397841461563,68.2592561373365
790.3662645779411,68.25228152726997
793.1021829478475,68.24566972454271
795.8475719260819,68.23903503451199
798.6024642959395,68.2323773779515
801.3668929541977,68.22569667536071
804.1408909115106,68.21899284696386
806.9244912928012,68.21226581270908
809.7177273376557,68.20551549226734
812.5206324007215,68.19803761633575
815.3332399521081,68.18743624941129
818.1555835777841,68.17679818497605
820.9876969799774,68.16612329599856
823.8296139775787,68.15541145500761
826.6813685065473,68.14574033441544
829.5429946203149,68.13678858093134
832.4145264901898,68.12780584021017
835.2959984057676,68.11879200498709
838.1874447753415,68.10951586584088
841.0889001263124,68.09686229667136
844.0003991055983,68.08416492612281
846.9219764800506,68.07142360257312
849.8536671368711,68.05863817387531
852.795506084026,68.05869887652102
855.7475284506633,68.05943688211268
858.709769487533,68.0601774423719
861.6822645674105,68.06092056614186
864.6650491855168,68.09236557887571
867.6581589599409,68.12759217852856
870.661629632067,68.1629407179774
873.6754970670025,68.19841161932705
876.6997972540049,68.23898701963388
879.7345663069098,68.28359812471159
882.7798404645638,68.32836365482909
885.8356560912591,68.36213277825705
888.9020496771659,68.36628944511794
891.9790578387654,68.3704605006259
895.0667173192925,68.37464599458838
898.1650649891719,68.37884597698532
901.2741378464567,68.38147490420518
904.3939730172714,68.38182155255748
907.5246077562578,68.38216940086181
910.6660794470176,68.38251845327191
913.8184256025572,68.38178076701415
916.9816838657374,68.38023969247568
920.1558920097245,68.37869328337989
923.3410879384401,68.37714152126078
926.5373096870112,68.3729433683825
929.7445954222267,68.36587089214588
932.9629834429948,68.35877393394622
936.1925121807985,68.35165240903723
939.4332202001532,68.34543721302201
942.6851461990676,68.34037866146812
945.9483290095096,68.33530259931855
949.2228075978666,68.33020896595889
952.5086210654097,68.32328591868436
955.8058086487622,68.31577565807783
959.1144097203702,68.30823940008139
962.4344637889708,68.30259129473039
965.7660105000621,68.30968150952579
969.1090896363778,68.31679626768768
972.4637411183654,68.32393565417499
975.8300050046603,68.33171693744929
979.2079214925617,68.34141762069659
982.5975309185156,68.35115188366343
985.9988737585978,68.36091984258881
989.4119906289952,68.37180474367774
992.8369222864893,68.3842676894314
996.2737096289444,68.39677377670534
999.7223936957981,68.40932315483751
1003.1830156685497,68.43006803047835
1006.6556168712492,68.4515981579351
1010.1402387709937,68.47320281371351
1013.6369229784239,68.49488225579957
1017.145711248219,68.51463407924064
1020.6666454795939,68.53317766619254
1024.1997677168006,68.5517854433085
1027.7451201496333,68.57045763278808
1031.3027451139294,68.58934334275592
1034.8726850920732,68.60855301978116
1038.4549827135054,68.6278291926965
1042.049680755234,68.64717209168293
1045.6568221423436,68.66477719502757
1049.2764499485036,68.68031143102901
1052.9086073964904,68.69589944007662
1056.5533378586993,68.71154140831025
1060.2106848576607,68.72719948219262
1063.8806920665616,68.74228728960698
1067.56340330977,68.75742732471797
1071.2588625633548,68.77261976831603
1074.9671139556103,68.78786480181752
1078.6882017675844,68.80168732655972
1082.4221704336094,68.81554449916473
1086.169064541831,68.82944963952191
1089.928928834738,68.84340291367559
1093.7018082096993,68.85739420544432
1097.487747719502,68.87143373112649
1101.286792572887,68.88552185579113
1105.0989881350868,68.89965874766762
1108.924379928369,68.91518491636822
1112.7630136325838,68.9311792234691
1116.6149350857045,68.94722889619044
1120.480190284375,68.96339637307362
1124.3588253844605,68.9800601386888
1128.2508867015997,68.9967815873106
1132.1564207117583,69.01356091861349
1136.0754740517787,69.0303983329632
1140.0080935199417,69.04731262487753
1143.9543260765256,69.06430334838505
1147.9142188443666,69.08135288669104
1151.8878191094173,69.09762717989246
1155.875174321315,69.11303287048388
1159.8763320939497,69.12849188915088
1163.8913402060318,69.14400442049302
1167.9202466016586,69.15957064974884
1171.9630993908897,69.17519076279814
1176.0199468503245,69.19493057422868
1180.0908374236756,69.21466058097506
1184.1758197223455,69.22937699156385
1188.2749425260083,69.24414434422833
1192.3882547831965,69.2589628153087
1196.515805611881,69.27383258175563
1200.6576443000567,69.28875382113226
1204.8138203063331,69.30372671161642
1208.9843832605268,69.32420093770001
1213.1693829642525,69.34691950752024
1217.3688693915146,69.36971671955394
1221.5828926893068,69.39533150163298
1225.8115031782133,69.42560298306944
1230.054751353007,69.45597925174931
1234.3126878832502,69.48646067040232
1238.5853636139025,69.51704760301381
1242.8728295659291,69.54640267942489
1247.1751369369097,69.57412866026009
1251.492337101644,69.60248122562452
1255.8244816127738,69.6319398083002
1260.171622201395,69.66150036430282
1264.5338107776718,69.69116324662151
1268.9110994314606,69.7188428897705
1273.3035404329328,69.74636885337972
1277.7111862331983,69.77399010039471
1282.1340894649272,69.8009955974919
1286.5723029429828,69.8273289974617
1291.025879665054,69.85375355267932
1295.4948728122847,69.88026957868624
1299.9793357499084,69.90687739211613
1304.4793220278857,69.9335773106988
1308.9948853815479,69.96036965326385
1313.526079732236,69.98725473974461
1318.0729591879408,70.01669125853215
1322.635578043953,70.04490909302088
1327.2139907835133,70.07138758003133
1331.8082520784606,70.09795772452044
1336.4184167898823,70.12461984376816
1341.0445399687724,70.15306292910226
1345.6866768566904,70.18741474207285
1350.3448828864198,70.22188546669285
1355.019213682626,70.25647551458478
1359.7097250625243,70.29118529879604
1364.416473036548,70.32108350557967
1369.1395138090159,70.3507599451
1373.8789037787992,70.3805391120768
1378.6346995399995,70.41042136210967
1383.406957882625,70.4403502693978
1388.1957357932683,70.47035994430449
1393.0010904557828,70.50047350018959
1397.823079251968,70.53069129664567
1402.6617597622587,70.56045176744925
1407.517189766409,70.58985409358549
1412.3894272441796,70.61935819831199
1417.2785303760327,70.64896443394376
1422.18455754383,70.67867315401541
1427.1075673315265,70.70848471328537
1432.0476185258688,70.73797856837633
1437.004770117097,70.76697790518502
1441.9790812996548,70.79607762560299
1446.970611472892,70.82527807711642
1451.9794202417715,70.85511405187965
1457.0055674175837,70.88587407259563
1462.049113018663,70.91674057167423
1467.1101172711035,70.94771391769916
1472.1886406094711,70.97879448052997
1477.2847436775367,71.00967799881619
1482.3984873289933,71.04029227747625
1487.5299326281825,71.07101253000073
1492.6791408508238,71.10183912322695
1497.8461734847517,71.13277242526206
1503.0310922306455,71.16413612199209
1508.2339590027634,71.19583892352351
1513.4548359296853,71.22765146693156
1518.693785355057,71.25957413209682
1523.950869838332,71.29160730021492
1529.226152155516,71.31642602339805
1534.5196952999186,71.33950587150765
1539.8315624829088,71.36266561242549
1545.161817134668,71.38590552270716
1550.5105229049418,71.40936201930687
1555.8777436638063,71.43419436068456
1561.263543502431,71.45911266127126
1566.6679867338432,71.48411721862192
1572.0911378936914,71.50920833132149
1577.5330617410195,71.5349266854932
1582.9938232590441,71.56135677124045
1588.4734876559257,71.58787834692136
1593.9721203655458,71.61449172923591
1599.48978704829,71.6411972359804
1605.0265535918368,71.66698987533279
1610.5824861119397,71.69276940222608
1616.1576509532142,71.71863816708958
1621.7521146899337,71.74459647882797
1627.3659441268267,71.77099165255375
1632.999206299872,71.79795620082206
1638.6519684770956,71.82501408911038
1644.3242981593776,71.8521656405229
1650.016263081261,71.87941117928231
1655.727931211758,71.90675103073363
1661.4593707551571,71.93418552134803
1667.2106501518424,71.96171497872683
1672.981838079113,71.98933973160536
1678.773003452,72.01902207165195
1684.5842154240866,72.04986023651718
1690.4155433883363,72.08080515024746
1696.2670569779266,72.11185718236287
1702.1388260670751,72.14273152685368
1708.0309207718713,72.17321329679315
1713.9434114511178,72.20380058190712
1719.8763687071732,72.23449374744513
1725.8298633867923,72.2652710302307
1731.8039665819686,72.29601774800854
1737.798749630785,72.32687089809978
1743.8142841182726,72.35783084892873
1749.8506418772586,72.38889797019498
1755.9078949892207,72.41770947488219
1761.9861157851576,72.44656076292688
1768.0853768464485,72.47551192209782
1774.2057510057145,72.50456329810713
1780.347311347694,72.53963292908851
1786.5101312101165,72.57570596801656
1792.694284184577,72.6119038767604
1798.8998441174108,72.64822708756726
1805.1268851105772,72.68317214788148
1811.37548152255,72.71791434393207
1817.6457079692007,72.75277680297543
1823.9376393246862,72.78775994131193
1830.2513507223466,72.82335430275035
1836.5869175556063,72.85917137391436
1842.9444154788698,72.89511242884055
1849.3239204084218,72.93117789670896
1855.7255085233378,72.96736820818528
1862.1492562663973,73.00368379542604
1868.5952403449926,73.0401250920837
1875.0635377320416,73.07672472576272
1881.5542256669096,73.1167073634415
1888.0673816563371,73.15682840433638
1894.6030834753597,73.19708832754156
1901.1614091682347,73.23759601199869
1907.7424370493754,73.27874937301543
1914.3462457042915,73.32004518980418
1920.9729139905223,73.3614839554874
1927.6225210385753,73.40229689205658
1934.2951462528752,73.44206573833382
1940.9908693127152,73.48197224777046
1947.709770173205,73.52201689689899
1954.4519290662217,73.56368414025677
1961.217426501372,73.60626167078199
1968.0063432669567,73.64898658696006
1974.8187604309323,73.69185939897868
1981.6547593418745,73.73594538028624
1988.5144216299545,73.78021306758531
1995.3978292079164,73.8246339911551
2002.3050642720525,73.86936747475217
2009.236209303178,73.91457394289962
2016.1913470676304,73.95993689698555
2023.170560618242,74.00545687869898
2030.1739332953475,74.05118467900054
2037.2015487277622,74.09905054855687
2044.2534908337984,74.14708210979022
2051.32984382225,74.195279936256
2058.4306921934153,74.24364460349517
2065.5561207400883,74.29199148501617
2072.7062145485897,74.34045323194044
2079.8810589997647,74.38908273322063
2087.080739770019,74.43788056955236
2094.305342832327,74.48837811220395
2101.5549544572737,74.5400920084619
2108.829661214068,74.59198491666035
2116.1295499715943,74.64405745646404
2123.454707899433,74.6965405635426
2130.805222468916,74.74946426844286
2138.181181454157,74.8025711731366
2145.582672933116,74.85581538951067
2153.0097852886333,74.90922870586742
2160.4626072095016,74.96282691684833
2167.941227691509,75.01661066248145
2175.445736038519,75.07058058501036
2182.976221863519,75.12595261949609
2190.5327750897077,75.18338242401511
2198.1154859515514,75.24101102656515
2205.72444499588,75.29745570776136
2213.359743082949,75.35363877618538
2221.021471387544,75.41001632696002
2228.70972140005,75.46658903330206
2236.424584927563,75.52335757075866
2244.166154094968,75.58109798478317
2251.9345213460547,75.63970599993301
2259.7297794446135,75.6985168915877
2267.552021475539,75.75753136202103
2275.401340845955,75.81771035431044
2283.277831286314,75.8785343638221
2291.1815868515314,75.93956892068684
2299.112701922094,76.00081475373173
2307.071271205203,76.06195831558662
2315.0573897358877,76.12327395897222
2323.071152878157,76.1848018515423
2331.1126563261223,76.24606057694037
2339.181996105157,76.30451846067292
2347.279268573025,76.36317870121792
2355.4045704210494,76.42204199905028
2363.5579986752496,76.4836787227795
2371.739650697518,76.54885921722355
2379.9496241867632,76.61426533935456
2388.188017180097,76.67989787020144
2396.454928053985,76.74575759349676
2404.75045552544,76.81042015902838
2413.074698653183,76.87423935634108
2421.4277568388447,76.93827946909782
2429.8097298281327,77.0025412620157
2438.2207177120426,77.06640894863061
2446.660820928033,77.13048339887867
2455.130140261246,77.19477964814998
2463.628776845689,77.2592984642202
2472.1568321654636,77.32410652072788
2480.7144080559565,77.38933426584875
2489.3016067050767,77.4547878022187
2497.9185306544546,77.52046791143286
2506.5652828006873,77.58508055812844
2515.2419663965466,77.6495049338277
2523.948685052233,77.71415231984618
2532.6855427365913,77.77902348815253
2541.4526437783747,77.8436471041598
2550.2500928674667,77.90610899269235
2559.077995056156,77.96878709823206
2567.9364557603667,78.03168216923196
2576.82558076094,78.09479495673601
2585.7454762048746,78.15625893462136
2594.696248606618,78.21690041764317
2603.6780048493156,78.27775181618745
2612.6908521861064,78.33881385689422
2621.734898241386,78.39968727849086
2630.8102510121116,78.45908042051259
2639.9170188690696,78.51867915682091
2649.055310558191,78.5784841990975
2658.2252352018304,78.63641710481153
2667.426902300085,78.69431092697137
2676.660421732098,78.75240515339779
2685.925903757357,78.81070047780672
2695.223459017036,78.86732585683443
2704.5531985352895,78.9226823113094
2713.9152337206037,78.97823038674225
2723.309676367103,79.0322331663521
2732.7366386559065,79.0832173207307
2742.196233156448,79.1343779609878
2751.6885728278403,79.18571569804391
2761.2137710202014,79.23678609556019
2770.771941476033,79.28497520494169
2780.363198331554,79.33333112492159
2789.987656118086,79.38185443292869
2799.6454297633995,79.43054570839048
2809.336634593108,79.47279208323681
2819.061386332023,79.51493267410545
2828.8198011055592,79.5572191381241
2838.6119954410965,79.59965198024476
2848.4380862693956,79.6422317071674
2858.2981909259715,79.6797033064261
2868.1924271525177,79.71631198046433
2878.120913098288,79.75304737846368
2888.083767321532,79.78990993908967
2898.081108790886,79.8269001025263
2908.1130568868184,79.85898821521141
2918.179731403032,79.88999357272134
2928.281252547915,79.9211062578476
2938.4177409459576,79.95232664211356
2948.5893176392115,79.98365509832878
2958.7961040887153,80.00911064981291
2969.0382221759655,80.03369173322233
2979.315794204351,80.05835790609045
2989.6289429006342,80.08310946296153
2999.9777914163965,80.10794669939935
3010.3624633295285,80.12760232646504
3020.7830826456857,80.14731466467144
3031.2397737997912,80.16709523877128
3041.7326616574965,80.18641967352248
3052.2618715166996,80.20314941807653
3062.8275291090144,80.21993707402878
3073.4297606012983,80.23533472070153
3084.068692597132,80.24774680803
3094.74445213836,80.2602018608281
3105.4571667065766,80.27270002782434
3116.20696422468,80.28368971720597
3126.9939730583696,80.29357780863684
3137.818322017704,80.30350012851625
3148.6801403586273,80.31345679532875
3159.579557784505,80.31894553581043
3170.5167044476943,80.32383079465332
3181.4917109510725,80.32873296422484
3192.5047083496224,80.33365210306285
3203.555828151972,80.33764004906737
3214.6452023219904,80.33963613641797
3225.7729632803366,80.34163913339047
3236.9392439060684,80.3436490639031
3248.1441775382027,80.34566595195689
3259.3878979773326,80.34600000000002
3270.6705394872015,80.346
3281.992236796329,80.34600000000002
3293.3531250995975,80.34600000000002
3304.753340059889,80.34549297706029
3316.1930178096823,80.34427274476698
3327.672294952702,80.34304828853838
3339.1913085655256,80.34181959375303
3350.7501961992452,80.34059664835475
3362.349095881084,80.33951408438445
3373.988146116071,80.33842777302918
3385.66748588867,80.33733770131705
3397.3872546644625,80.33624385623132
3409.1475923917897,80.33270686673897
3420.948639503448,80.32845848977877
3432.7905369183404,80.3241954067094
3444.6734260431867,80.31991756662445
3456.5974487741832,80.31712034016344
3468.5627474987255,80.31552496700017
3480.5694650970813,80.3139240713204
3492.6177449441248,80.31231763400746
3504.7077309110186,80.31149025769703
3516.8395673669634,80.31189465224558
3529.01339918089,80.31230044663937
3541.229371723219,80.31270764572412
3553.487630867571,80.31374402791843
3565.788322992532,80.31636817557175
3578.131594983376,80.31900140692979
3590.517594233848,80.32164375343656
3602.9464686478923,80.32496311287174
3615.418366641451,80.33045074798892
3627.933437144205,80.33595737901011
3640.491829601383,80.34148307169127
3653.093693975515,80.34766725543751
3665.7391807482545,80.35584467021721
3678.4284409221445,80.36405039179634
3691.16162602245,80.37228451816118
3703.93888809894,80.38128240674912
3716.760379727725,80.39196698310644
3729.6262540130742,80.4026885450109
3742.5366645892245,80.41344722049102
3755.4917656222487,80.42612602908903
3768.491711811861,80.44141644198824
3781.5366583932982,80.45675978391974
3794.6267611391404,80.47215623810176
3807.7621763612033,80.48760598838675
3820.9430609123733,80.50345231380506
3834.169572188512,80.52382114117033
3847.4418681303036,80.54426047692067
3860.760107225173,80.56477056512678
3874.124448509147,80.58685363736952
3887.535051568784,80.61238966069557
3900.9920765430497,80.63801407908406
3914.4956841252583,80.66372719852185
3928.046035564963,80.68952932605495
3941.643292669911,80.71542076979229
3955.2876178079437,80.74226107680309
3968.9791739089696,80.77055695941188
3982.7181244668764,80.79895079056489
3996.504633541514,80.82744290931913
4010.3388657606247,80.85781423834186
4024.220986321839,80.88889476382057
4038.1511609946156,80.92008287711573
4052.129556122256,80.95137895065152
4066.1563386238545,80.98268075249746
4080.2316759963273,81.01395927999185
4094.3557363163786,81.04534608070308
4108.52868824254,81.07684152942788
4122.750701017153,81.10792642540154
4137.02194446842,81.13694462041913
4151.3425890124045,81.16606326432522
4165.712805655093,81.19528270483202
4180.132765994407,81.22455271333362
4194.602642222288,81.24846246119588
4209.122607126714,81.27245497463319
4223.692834093801,81.29653054014548
4238.31349710984,81.32068944522437
4252.984770763404,81.34273603986647
4267.706830247405,81.35623126106013
4282.479851361214,81.36977319708113
4297.304010512731,81.38336200963667
4312.179484720523,81.39516951547827
4327.106451615903,81.39633050179235
4342.08508944509,81.39749550695684
4357.115577071296,81.39866454488335
4372.198093976903,81.39718596060703
4387.3328202655675,81.38010534093839
4402.519936664403,81.36296559528829
4417.759624526125,81.34576651898719
4433.0520658312025,81.32850790665718
4448.397443190065,81.29971971115368
4463.795939845242,81.26130901671938
4479.247739673593,81.22276536048088
4494.753027188463,81.1840882821799
4510.311987541924,81.1334643653474
4525.9248065269485,81.07663370424191
4541.591670579664,81.01960631909003
4557.312766781548,80.9541424783413
4573.088282861689,80.87894585169262
4588.918407199,80.80348892568477
4604.803328824502,80.72777079926988
4620.743237423542,80.6510308144704
4636.7383233381,80.55843703934279
4652.788777569017,80.46552274318381
4668.894791778324,80.37228681648327
4685.056558291484,80.27481934606827
4701.274270099729,80.16840026572655
4717.548120862328,80.06161280691292
4733.878304908936,79.9544556944547
4750.26501724188,79.8467749483544
4766.708453538518,79.72940013402744
4783.208810153547,79.61161901704683
4799.766284121379,79.49343019096217
4816.381073158456,79.37483224445464
4833.053375665654,79.25014243495879
4849.78339073061,79.12344045420018
4866.571318130138,78.99629988402778
4883.417358332578,78.86733913508517
4900.321712500225,78.73757809261734
4917.284582491697,78.60736787153995
4934.30617086438,78.47670691698391
4951.38668087681,78.3442471484991
4968.526316491139,78.21065321090518
4985.7252823755325,78.07659682681738
5002.98378390665,77.94218414319091
5020.302027172061,77.8078234391901
5037.6802189727405,77.67299763446982
5055.118566825507,77.53770511904547
5072.617278965533,77.40194427735908
5090.176564348794,77.2674216972763
5107.796632654607,77.13367698832649
5125.477694288087,76.9994693109752
5143.219960382707,76.86479706261889
5161.023642802774,76.73091847999832
5178.888954146003,76.59735400947989
5196.816107746011,76.46332719447031
5214.8053176749045,76.32883643452573
5232.856798745817,76.1956096692078
5250.97076651546,76.06262295583234
5269.147437286735,75.9291758979199
5287.38702811127,75.79526690194977
5305.68975679206,75.66229310076301
5324.055841886017,75.53197042195048
5342.485502706632,75.40119662037752
5360.978959326544,75.26997013444542
5379.536432580213,75.13828939714958
5398.158144066516,75.01083288152613
5416.8443161514315,74.88305505717403
5435.595171970659,74.75483491928635
5454.410935432318,74.6272421639345
5473.291831219585,74.5027181607661
5492.238084793418,74.37776310743389
5511.249922395204,74.25237551182212
5530.327571049505,74.1275374548449
5549.471258566728,74.00310348598295
5568.681213545882,73.87823877861844
5587.957665377273,73.75294184171439
5607.30084424528,73.62908506242864
5626.710981131063,73.50790110780507
5646.188307815363,73.38629766487276
5665.733056881231,73.26427328153818
5685.345461716842,73.14182650068119
5705.025756518242,73.02240687961364
5724.77417629219,72.91267149373641
5744.590956858915,72.80255624972064
5764.476334854984,72.6920598326558
5784.430547736075,72.58118092307988
5804.453833779861,72.4715067310114
5824.546432088814,72.36702521980484
5844.708582593099,72.26218203718257
5864.940526053395,72.15697593118902
5885.242504063819,72.05140564553483
5905.614759054764,71.94795912942952
5926.057534295836,71.85071966186615
5946.57107389872,71.75314359182175
5967.155622820132,71.65522975411892
5987.811426864706,71.55697697954689
6008.538732687973,71.46110937369713
6029.337787799255,71.36881356664081
6050.208840564677,71.27619826999425
6071.152140210077,71.1832623778178
6092.167936824033,71.08912839917926
6113.256481360802,70.99402910548248
6134.418025643365,70.89860061769399
6155.652822366382,70.80682569013935
6176.961125099257,70.72575267164616
6198.3431882891455,70.64439901217607
6219.799267263974,70.56276374026707
6241.329618235533,70.49570043665123
6262.934498302486,70.42854526777644
6284.614165453489,70.36115763571541
6306.368878570223,70.29288923312293
6328.198897430536,70.22281487258131
6350.104482711491,70.15249794382946
6372.085895992533,70.0819376071973
6394.143399758558,70.01113302010837
6416.277257403105,69.95201999249832
6438.487733231443,69.89701204736348
6460.775092463781,69.84181368766471
6483.139601238387,69.78642425426627
6505.581526614811,69.73618274621218
6528.101136577027,69.7019529390696
6550.698700036686,69.66760464261091
6573.374486836269,69.63313744667555
6596.12876775237,69.59855093968308
6618.961814498865,69.56378150258007
6641.873899730226,69.52887875941097
6664.865297044707,69.4938551975019
6687.936280987677,69.45871039862878
6711.087127054833,69.42887663537668
6734.318111695558,69.40487128458126
6757.629512316155,69.38078283727332
6781.021607283223,69.35661100580735
6804.494675926917,69.33646063888878
6828.04899854435,69.3336341201747
6851.684856402876,69.33079781723167
6875.402531743509,69.3279516961908
6899.202307784232,69.3250957230659
6923.084468723443,69.32915520437022
6947.049299743285,69.3334688739538
6971.097087013113,69.33779747566238
6995.228117692851,69.34214106118473
7019.44267993648,69.36697930525499
7043.741062895422,69.39694731090435
7068.123556722049,69.42701905329055
7092.590452573089,69.45719489150683
7117.142042613164,69.49158927611673
7141.77862001822,69.52788716682686
7166.500478979081,69.56431070569586
7191.307914704911,69.60086032766525
7216.201223426795,69.65670791690387
7241.180702401213,69.7230700660459
7266.246649913657,69.78966193327064
7291.399365282127,69.85648431376619
7316.63914886076,69.92708769056372
7341.966302043393,69.99977662019788
7367.38112726714,70.07271716859003
7392.883928016058,70.14591020673943
7418.475008824708,70.24485212083835
7444.154675281853,70.35399070328121
7469.923234034047,70.46350707797804
7495.780992789355,70.57340255268811
7521.728260320971,70.69158511220316
7547.765346470962,70.81171733468965
7573.892562153909,70.9322654048268
7600.11021936068,71.05323076210583
7626.418631162095,71.18417010811741
7652.818111712724,71.34527463045202
7679.308976254581,71.50693682945104
7705.891541120945,71.66915863555859
7732.566123740076,71.83194198590098
7759.333042639076,72.00553124033469
7786.192617447617,72.19892017895619
7813.1451689018295,72.39297854942652
7840.191018848068,72.58770866903943
7867.330490246816,72.78311286311043
7894.563907176478,73.00031113040988
7921.891594837319,73.23669562867616
7949.313879555273,73.47389839148646
7976.831088785917,73.71192225133153
8004.443551118307,73.95691696288704
8032.15159627897,74.234921015999
8059.955555135776,74.51388740319562
8087.855759701956,74.7938194556763
8115.852543139997,75.07472051617131
8143.94623976569,75.38465401993864
8172.1371850520545,75.70053717609612
8200.425715633412,76.0175137879949
8228.812169309334,76.33558764072255
8257.296885048754,76.64598756044921
8285.880202993936,76.93189403045987
8314.562464464607,77.21879018942674
8343.344011961968,77.50667946324012
8372.225189172856,77.79556528964952
8401.206340973766,78.06083273144306
8430.287813435049,78.31796141712157
8459.469953824975,78.57598017506918
8488.753110613945,78.83489208634496
8518.137633478584,79.05525088985723
8547.623873305984,79.2518258220399
8577.212182197833,79.44908121465221
8606.902913474676,79.64701942316451
8636.696421680079,79.69948490449337
8666.59306258491,79.63708524886125
8696.593193191571,79.57446959164632
8726.69717173823,79.51163718514124
8756.905357703157,79.368926010224
8787.218111808957,78.95596525678931
8817.635796026943,78.54157500545962
8848.158773581377,78.12575030790971
8878.787408953895,77.59458401725722
8909.52206788778,77.05426871319952
8940.363117392397,76.51208306290835
8971.310925747513,75.96802059202538
9002.365862507762,75.42589830046639
9033.528298506983,74.9284246346677
9064.798605862725,74.42922892251924
9096.177157980617,73.92830520301499
9127.664329558896,73.44396163926976
9159.260496592817,73.01506392573752
9190.966036379203,72.5846815472013
9222.781327520892,72.15280936437027
9254.706749931318,71.73114875204355
9286.742684838984,71.37596059168266
9318.889514792083,71.01954291804881
9351.14762366299,70.6618914750801
9383.51739665293,70.30873128999106
9415.999220296488,70.00150737469573
9448.593482466316,69.69321997833943
9481.300572377679,69.38386541959447
9514.120880593176,69.0954058186456
9547.05479902734,68.83513637990893
9580.102720951385,68.57396599692588
9613.265040997821,68.31189155100334
9646.542155165262,68.07749944346175
9679.934460823053,67.84957555202317
9713.442356716112,67.6208626831326
9747.066242969606,67.39135810567926
9780.806521093804,67.19913277952695
9814.663593988798,67.00988042334468
9848.637865949398,66.81997295443671
9882.729742669864,66.63128334496581
9916.939631248848,66.46355986346052
9951.267940194164,66.29525579321472
9985.715079427751,66.12636912447228
10020.281460290485,65.96479634255562
10054.967495547176,65.80824670343043
10089.773599391401,65.65115515474682
10124.700187450571,65.49351982063978
10159.747676790772,65.33614029439822
10194.91648592181,65.18030339349315
10230.207034802208,65.02392705023199
10265.619744844176,64.86700939729047
10301.155038918752,64.70993925737778
10336.813341360688,64.56399491952614
10372.595077973692,64.41754538324578
10408.500676035359,64.27058889975054
10444.53056430237,64.12080719352451
10480.685173015574,63.9543453492408
10516.964933905141,63.78730728347842
10553.370280195684,63.61969100159905
10589.901646611532,63.45149450205941
10626.55946938175,63.29339120755359
10663.344186245544,63.13881365291039
10700.256236457317,62.98370101524271
10737.296060792014,62.828051442316244
10774.464101550358,62.67860429457894
10811.760802564133,62.53215258193152
10849.18660920146,62.38519391453561
10886.741968372207,62.23772653752514
10924.427328533166,62.088975157889564
10962.243139693592,61.939287572046204
11000.189853420414,61.789081830210876
11038.267922843723,61.63835613874361
11076.477802662155,61.50070288499192
11114.819949148323,61.38056415933527
11153.294820154244,61.26000956351671
11191.902875116897,61.13903765796706
11230.644575063545,61.037622721138625
11269.52038261743,60.941153124616015
11308.530762003134,60.84434959058482
11347.676179052212,60.74721096309267
11386.957101208734,60.65501832569608
11426.373997534869,60.58713367091218
11465.927338716456,60.51901402776611
11505.617597068724,60.45756709235254
11545.445246541767,60.43795499223322
11585.410762726393,60.41827500320292
11625.514622859631,60.39852689025852
11665.757305830535,60.378710417583456
11706.139292185866,60.35882534854485
11746.661064135846,60.35722112505996
11787.323105559875,60.36518410817215
11828.125902012422,60.42283670522951
11869.069940728641,60.50315001194209
11910.155710630388,60.583741329826275
11951.383702331894,60.66461162124077
11992.75440814571,60.745761851875564
12034.268322088576,60.8271929907635
12075.925939887276,60.924610270429646
12117.72775898468,61.04782610862628
12159.674278545488,61.17146846866504
12201.765999462405,61.29636856641677
12244.003424361943,61.440713289922655
12286.387057610518,61.58555767465945
12328.917405320459,61.73090345024596
12371.59497535604,61.8767523522882
12414.420277339525,62.01117605112544
12457.393822657352,62.04205333924269
12500.516124466067,62.0714038821397
12543.78769769865,61.965532766297315
12587.20905907049,61.859295168807535
12630.780727085652,61.75268982106379
12674.503222043048,61.55042514212283
12718.377066042643,61.27245996602761
12762.402782991676,60.993532590423854
12806.580898611004,60.69353556161477
12850.911940441216,60.27724596880916
12895.396437849122,59.859515355054924
12940.034922033903,59.44033873213878
12984.82792603356,59.019711094580096
13029.775984731246,58.59762741957135
13074.879634861654,58.174082666918196
13120.13941501741,57.749071778979385
13165.555865655593,57.322545235275136
13211.12952910402,56.91575112230194
13256.860949567927,56.57368009723192
13302.750673136274,56.23042496494069
13348.799247788385,55.88598162654288
13395.007223400466,55.54034596896454
13441.375151752154,55.19730658713785
13487.903586533097,54.85353900149798
13534.593083349662,54.50858143585159
13581.444199731392,54.16242977098458
13628.457495137867,53.8810064038258
13675.633530965204,53.64174527545482
13722.972870552867,53.40165592484605
13770.476079190363,53.16073548503956
13818.143724123998,52.93697360557409
13865.97637456362,52.741816391780446
13913.97460168953,52.545983625106736
13962.138978659099,52.34947296707089
14010.470080613848,52.147663602202506
14058.968484686113,51.928396928680236
14107.634770006045,51.708371245383795
14156.469517708507,51.48758392493789
14205.473310940008,51.26603233087235
14254.646734865633,51.043713817590834
14303.99037667613,50.82696156175003
14353.504825594851,50.681719178255115
14403.190672884737,50.53597402620479
14453.048511855462,50.38972436522399
14503.078937870498,50.24871579960482
14553.282548354206,50.19516528175552
14603.659942798959,50.14142939434779
14654.211722772408,50.08750749570944
14704.938491924466,50.03339894194725
14755.840855994744,49.96517848624749
14806.919422819585,49.788923378323894
14858.174802339434,49.61205814872741
14909.6076066061,49.434580685471225
14961.218449790058,49.25648886925779
15013.007948187753,49.132760834460385
15064.976720229084,49.17308860156445
15117.125386484577,49.2135559665787
15169.454569673031,49.25416341273294
15221.964894668752,49.294911424929616
15274.656988509127,49.3163050308352
15327.531480402085,49.31552953828744
15380.589001733613,49.31475136130791
15433.830186075256,49.31397049060424
15487.255669191823,49.31318691685186
15540.86608904874,49.569475574869905
15594.662085819935,49.90709925060592
15648.644301895256,50.24589163869464
15702.813381888267,50.58585678473077
15757.169972643915,50.885804865483045
15811.714723246256,50.914749946469364
15866.448285026168,50.94379522325389
15921.37131156927,50.972941042672765
15976.484458723484,51.0021877527626
16031.788384607138,51.22480908117626
16087.283749616592,51.59167044079876
16142.971216434258,51.95980172144141
16198.851450036474,52.32920731904113
16254.925117701452,52.689975741112825
16311.192889017208,52.94865744177512
16367.655435889692,53.20823459059688
16424.313432550578,53.46871028724587
16481.16755556559,53.7300876421202
16538.21848384233,54.089444725344
16595.466898638533,54.49804574454944
16652.913483570166,54.908061170068144
16710.55892461958,55.31949589798484
16768.403910143694,55.75083236711654
16826.449130882313,56.22339785755654
16884.695279966178,56.69759917263132
16943.143052925483,57.17344197488401
17001.79314769796,57.64363742162303
17060.646264637344,57.88336578462279
17119.7031065217,58.12392398723174
17178.96437856179,58.36531490200837
17238.43078840962,58.60754141145518
17298.103046166652,58.48130328828206
17357.981864392565,58.265500027395866
17418.067958113515,58.048949745625556
17478.36204483082,57.83164985709639
17538.864844529486,57.51876754633046
17599.577079686806,57.15182279703962
17660.49947528095,56.78360783806861
17721.632758799777,56.414118272480835
17782.97766024925,56.07720675264278
17844.534912162457,55.76835350071025
17906.305249608107,55.458431127632934
17968.289410199435,55.14743593255938
18030.488134103,54.85837258036363
18092.902164047497,54.59232237538688
18155.5322453326,54.32535121556225
18218.379125838026,54.057455912927786
18281.443556032173,53.82506586874282
18344.72628898141,53.62863626566838
18408.228080358786,53.431526705233004
18471.949688453216,53.23373483370789
18535.891874178502,53.06665171516474
18600.055401082398,52.923609825853646
18664.441035355714,52.780072785180344
18729.049545841608,52.63603887913712
18793.881704044492,52.45932647148419
18858.938284139567,52.26658551018918
18924.22006298178,52.073177360072656
18989.727820115277,51.87909971160516
19055.462337782647,51.56543899505663
19121.424400934284,51.2285927258956
19187.614797237715,50.89058043543941
19254.03431708716,50.55209736903669
19320.683753612695,50.22329348217738
19387.563902690043,49.893351413395806
19454.67556294979,49.56226722278105
19522.019535787094,49.18229860319726
19589.59662537121,48.70241116436392
19657.40763865509,48.220862555363986
19725.453385384983,47.73764702591945
